Date,Time,RMS(mV),Activation(%),MDF(Hz),Fatigue(%),Quality
2026-07-11,'16:32:48.147',1447.135,0.0,45.5,0.0,3
2026-07-11,'16:32:50.994',1485.485,0.0,46.3,0.0,3
2026-07-11,'16:32:51.015',1486.772,0.0,46.8,0.0,3
2026-07-11,'16:32:51.115',1481.238,0.0,49.0,0.0,3
2026-07-11,'16:32:51.215',1262.019,0.0,49.2,0.0,3
2026-07-11,'16:32:51.817',1115.667,0.0,49.4,0.0,3
2026-07-11,'16:32:51.838',1112.673,0.0,49.5,0.0,3
2026-07-11,'16:32:51.938',1115.068,0.0,50.1,0.0,3
2026-07-11,'16:32:52.038',1174.767,0.0,49.9,0.0,3
2026-07-11,'16:32:52.138',1217.762,0.0,49.7,0.0,3
2026-07-11,'16:32:52.238',1092.744,0.0,49.7,0.0,3
2026-07-11,'16:32:52.337',994.873,0.0,49.7,0.0,3
2026-07-11,'16:32:52.437',900.469,0.0,49.7,0.0,3
2026-07-11,'16:32:52.538',802.369,0.0,49.8,0.0,3
2026-07-11,'16:32:52.638',743.061,0.0,63.6,0.0,3
2026-07-11,'16:33:10.509',1247.708,0.0,45.2,0.0,3
2026-07-11,'16:33:10.609',1189.801,0.0,45.7,0.0,3
2026-07-11,'16:33:10.710',954.081,0.0,46.6,0.0,3
2026-07-11,'16:33:10.810',649.327,0.0,47.5,0.0,3
2026-07-11,'16:33:10.910',533.409,0.0,48.5,0.0,3
2026-07-11,'16:33:11.009',563.952,0.0,48.8,0.0,3
2026-07-11,'16:33:11.109',518.308,0.0,48.8,0.0,3
2026-07-11,'16:33:11.209',439.424,0.0,48.6,0.0,3
2026-07-11,'16:33:11.310',262.560,0.0,66.5,0.0,3
2026-07-11,'16:33:11.410',289.139,0.0,78.2,0.0,3
2026-07-11,'16:33:12.040',425.634,0.0,68.2,0.0,3
2026-07-11,'16:33:12.062',445.822,0.0,61.6,0.0,3
2026-07-11,'16:33:12.160',994.096,0.0,58.1,0.0,3
2026-07-11,'16:33:12.260',1167.909,0.0,54.8,0.0,3
2026-07-11,'16:33:12.361',1196.928,0.0,52.5,0.0,3
2026-07-11,'16:33:12.461',883.760,0.0,51.2,0.0,3
2026-07-11,'16:33:12.561',604.062,0.0,51.1,0.0,3
2026-07-11,'16:33:13.273',498.767,0.0,50.8,0.0,3
2026-07-11,'16:33:13.294',521.558,0.0,50.7,0.0,3
2026-07-11,'16:33:13.393',993.614,0.0,50.9,0.0,3
2026-07-11,'16:33:14.197',1128.659,0.0,50.3,0.0,3
2026-07-11,'16:33:14.218',1138.414,0.0,49.9,0.0,3
2026-07-11,'16:33:14.318',1340.565,0.0,50.0,0.0,3
2026-07-11,'16:33:14.417',1199.855,0.0,49.8,0.0,3
2026-07-11,'16:33:14.518',1026.376,0.0,49.4,0.0,3
2026-07-11,'16:33:14.618',735.139,0.0,49.3,0.0,3
2026-07-11,'16:33:14.718',623.066,0.0,49.3,0.0,3
2026-07-11,'16:33:14.817',653.356,0.0,49.3,0.0,3
2026-07-11,'16:33:14.917',634.638,0.0,49.2,0.0,3
2026-07-11,'16:33:15.017',565.491,0.0,49.1,0.0,3
2026-07-11,'16:33:16.227',438.478,0.0,49.2,0.0,3
2026-07-11,'16:33:16.249',483.035,0.0,49.3,0.0,3
2026-07-11,'16:33:16.348',1061.405,0.0,49.9,0.0,3
2026-07-11,'16:33:16.447',1184.267,0.0,49.5,0.0,3
2026-07-11,'16:33:16.547',1255.015,0.0,49.3,0.0,3
2026-07-11,'16:33:16.647',909.780,0.0,48.8,0.0,3
2026-07-11,'16:33:16.748',670.739,0.0,48.6,0.0,3
2026-07-11,'16:33:16.848',519.505,0.0,48.8,0.0,3
2026-07-11,'16:33:16.947',458.411,0.0,49.6,0.0,3
2026-07-11,'16:33:17.047',397.033,0.0,49.6,0.0,3
2026-07-11,'16:33:17.665',1055.561,0.0,49.9,0.0,3
2026-07-11,'16:33:17.685',1058.644,0.0,50.1,0.0,3
2026-07-11,'16:33:17.786',1126.557,0.0,49.4,0.0,3
2026-07-11,'16:33:17.886',1195.859,0.0,48.8,0.0,3
2026-07-11,'16:33:17.986',914.678,0.0,48.9,0.0,3
2026-07-11,'16:33:18.085',765.682,0.0,49.0,0.0,3
2026-07-11,'16:33:18.185',635.410,0.0,48.9,0.0,3
2026-07-11,'16:33:18.285',516.824,0.0,49.0,0.0,3
2026-07-11,'16:33:18.386',346.738,0.0,63.5,0.0,3
2026-07-11,'16:33:18.486',363.856,0.0,75.9,0.0,3
2026-07-11,'16:33:19.601',486.484,0.0,66.9,0.0,3
2026-07-11,'16:33:19.623',485.974,0.0,60.9,0.0,3
2026-07-11,'16:33:19.721',494.912,0.0,56.8,0.0,3
2026-07-11,'16:33:19.821',499.942,0.0,56.0,0.0,3
2026-07-11,'16:33:19.921',398.588,0.0,54.0,0.0,3
2026-07-11,'16:33:20.022',360.551,0.0,67.6,0.0,3
2026-07-11,'16:33:20.122',352.908,0.0,79.6,0.0,3
2026-07-11,'16:33:20.221',448.320,0.0,70.0,0.0,3
2026-07-11,'16:33:20.321',448.697,0.0,62.8,0.0,3
2026-07-11,'16:33:20.421',445.644,0.0,74.6,0.0,3
2026-07-11,'16:33:21.148',1085.149,0.0,65.8,0.0,3
2026-07-11,'16:33:21.170',1086.240,0.0,60.0,0.0,3
2026-07-11,'16:33:21.270',1282.336,0.0,56.3,0.0,3
2026-07-11,'16:33:21.368',1320.138,0.0,54.8,0.0,3
2026-07-11,'16:33:21.469',988.971,0.0,53.2,0.0,3
2026-07-11,'16:33:21.568',604.354,0.0,51.7,0.0,3
2026-07-11,'16:33:21.669',448.055,0.0,65.6,0.0,3
2026-07-11,'16:33:21.769',416.844,0.0,77.8,0.0,3
2026-07-11,'16:33:21.868',496.965,0.0,69.1,0.0,3
2026-07-11,'16:33:21.968',492.790,0.0,62.4,0.0,3
2026-07-11,'16:33:23.077',885.971,0.0,58.4,0.0,3
2026-07-11,'16:33:23.098',889.801,0.0,55.7,0.0,3
2026-07-11,'16:33:23.197',899.129,0.0,53.2,0.0,3
2026-07-11,'16:33:23.298',900.484,0.0,51.5,0.0,3
2026-07-11,'16:33:23.398',568.799,0.0,50.4,0.0,3
2026-07-11,'16:33:23.497',319.564,0.0,49.8,0.0,3
2026-07-11,'16:33:23.597',191.065,0.0,49.4,0.0,3
2026-07-11,'16:33:23.697',123.968,0.0,48.6,0.0,3
2026-07-11,'16:33:23.798',81.308,0.0,48.0,0.0,3
2026-07-11,'16:33:23.898',60.796,0.0,48.2,0.0,3
2026-07-11,'16:33:24.513',188.045,0.0,48.9,0.0,3
2026-07-11,'16:33:24.534',189.490,0.0,49.4,0.0,3
2026-07-11,'16:33:24.634',207.019,0.0,48.9,0.0,3
2026-07-11,'16:33:24.733',214.253,0.0,47.8,0.0,3
2026-07-11,'16:33:24.834',143.695,0.0,47.9,0.0,3
2026-07-11,'16:33:24.934',94.293,0.0,48.1,0.0,3
2026-07-11,'16:33:25.033',89.350,0.0,48.3,0.0,3
2026-07-11,'16:33:25.134',80.714,0.0,48.3,0.0,3
2026-07-11,'16:33:25.233',69.974,0.0,47.9,0.0,3
2026-07-11,'16:33:25.334',39.464,0.0,48.3,0.0,3
2026-07-11,'16:33:26.449',48.808,0.0,48.4,0.0,3
2026-07-11,'16:33:26.471',48.843,0.0,48.6,0.0,3
2026-07-11,'16:33:26.569',49.624,0.0,48.4,0.0,3
2026-07-11,'16:33:26.669',62.181,0.0,47.7,0.0,3
2026-07-11,'16:33:26.769',52.860,0.0,47.7,0.0,3
2026-07-11,'16:33:26.870',47.661,0.0,47.9,0.0,3
2026-07-11,'16:33:26.970',46.123,0.0,48.5,0.0,3
2026-07-11,'16:33:27.069',69.187,0.0,48.6,0.0,3
2026-07-11,'16:33:27.168',69.145,0.0,48.4,0.0,3
2026-07-11,'16:33:27.269',66.902,0.0,47.8,0.0,3
2026-07-11,'16:33:27.997',197.996,0.0,46.8,0.0,3
2026-07-11,'16:33:28.019',197.957,0.0,46.1,0.0,3
2026-07-11,'16:33:28.117',225.873,0.0,46.4,0.0,3
2026-07-11,'16:33:28.217',238.027,0.0,47.1,0.0,3
2026-07-11,'16:33:28.317',170.168,0.0,47.1,0.0,3
2026-07-11,'16:33:28.418',117.233,0.0,47.2,0.0,3
2026-07-11,'16:33:28.518',90.238,0.0,47.5,0.0,3
2026-07-11,'16:33:28.618',76.795,0.0,48.0,0.0,3
2026-07-11,'16:33:28.717',91.054,0.0,48.1,0.0,3
2026-07-11,'16:33:28.817',88.857,0.0,48.2,0.0,3
2026-07-11,'16:33:30.026',77.306,0.0,48.0,0.0,3
2026-07-11,'16:33:30.047',86.936,0.0,47.8,0.0,3
2026-07-11,'16:33:30.147',217.759,0.0,48.2,0.0,3
2026-07-11,'16:33:30.246',250.558,0.0,48.2,0.0,3
2026-07-11,'16:33:30.346',265.265,0.0,48.3,0.0,3
2026-07-11,'16:33:30.446',186.054,0.0,48.0,0.0,3
2026-07-11,'16:33:30.547',124.708,0.0,47.8,0.0,3
2026-07-11,'16:33:30.647',89.175,0.0,48.0,0.0,3
2026-07-11,'16:33:30.746',78.695,0.0,48.3,0.0,3
2026-07-11,'16:33:30.846',76.198,0.0,48.3,0.0,3
2026-07-11,'16:33:31.574',212.002,0.0,48.6,0.0,3
2026-07-11,'16:33:31.594',212.613,0.0,48.8,0.0,3
2026-07-11,'16:33:31.695',249.353,0.0,49.0,0.0,3
2026-07-11,'16:33:31.795',256.532,0.0,49.3,0.0,3
2026-07-11,'16:33:31.894',189.335,0.0,49.3,0.0,3
2026-07-11,'16:33:31.994',110.302,0.0,49.2,0.0,3
2026-07-11,'16:33:32.094',83.459,0.0,48.0,0.0,3
2026-07-11,'16:33:32.195',66.775,0.0,47.9,0.0,3
2026-07-11,'16:33:32.295',68.255,0.0,48.1,0.0,3
2026-07-11,'16:33:32.394',80.573,0.0,48.4,0.0,3
2026-07-11,'16:33:33.502',90.332,0.0,48.5,0.0,3
2026-07-11,'16:33:33.523',102.472,0.0,48.5,0.0,3
2026-07-11,'16:33:33.622',256.083,0.0,48.8,0.0,3
2026-07-11,'16:33:33.722',292.711,0.0,48.6,0.0,3
2026-07-11,'16:33:33.823',302.002,0.0,48.5,0.0,3
2026-07-11,'16:33:33.923',210.915,0.0,48.6,0.0,3
2026-07-11,'16:33:34.022',138.772,0.0,48.7,0.0,3
2026-07-11,'16:33:34.122',96.727,0.0,48.7,0.0,3
2026-07-11,'16:33:34.222',79.262,0.0,47.7,0.0,3
2026-07-11,'16:33:34.323',52.221,0.0,47.3,0.0,3
2026-07-11,'16:33:34.938',216.005,0.0,47.9,0.0,3
2026-07-11,'16:33:34.960',217.952,0.0,48.4,0.0,3
2026-07-11,'16:33:35.058',250.458,0.0,48.1,0.0,3
2026-07-11,'16:33:35.158',264.724,0.0,47.9,0.0,3
2026-07-11,'16:33:35.258',191.912,0.0,47.9,0.0,3
2026-07-11,'16:33:35.359',116.639,0.0,47.7,0.0,3
2026-07-11,'16:33:35.459',80.477,0.0,48.0,0.0,3
2026-07-11,'16:33:35.558',87.934,0.0,48.2,0.0,3
2026-07-11,'16:33:35.658',82.668,0.0,48.3,0.0,3
2026-07-11,'16:33:35.758',77.258,0.0,47.5,0.0,3
2026-07-11,'16:33:36.875',47.814,0.0,47.3,0.0,3
2026-07-11,'16:33:36.896',48.052,0.0,47.1,0.0,3
2026-07-11,'16:33:36.996',68.108,0.0,47.4,0.0,3
2026-07-11,'16:33:37.096',63.568,0.0,47.4,0.0,3
2026-07-11,'16:33:37.195',76.063,0.0,48.0,0.0,3
2026-07-11,'16:33:37.295',55.514,0.0,48.0,0.0,3
2026-07-11,'16:33:37.395',50.455,0.0,48.1,0.0,3
2026-07-11,'16:33:37.496',29.522,0.0,62.8,0.0,3
2026-07-11,'16:33:37.596',47.367,0.0,58.7,0.0,3
2026-07-11,'16:33:37.695',80.977,0.0,55.2,0.0,3
2026-07-11,'16:33:38.414',227.051,0.0,53.2,0.0,3
2026-07-11,'16:33:38.434',229.022,0.0,52.0,0.0,3
2026-07-11,'16:33:38.535',262.446,0.0,50.7,0.0,3
2026-07-11,'16:33:38.635',269.101,0.0,49.7,0.0,3
2026-07-11,'16:33:38.735',194.517,0.0,49.3,0.0,3
2026-07-11,'16:33:38.834',141.344,0.0,49.3,0.0,3
2026-07-11,'16:33:38.935',107.343,0.0,49.1,0.0,3
2026-07-11,'16:33:39.034',83.595,0.0,48.4,0.0,3
2026-07-11,'16:33:39.136',48.483,0.0,48.6,0.0,3
2026-07-11,'16:33:39.235',87.509,0.0,48.7,0.0,3
2026-07-11,'16:33:40.463',123.055,0.0,48.6,0.0,3
2026-07-11,'16:33:40.484',129.450,0.0,48.6,0.0,3
2026-07-11,'16:33:40.583',247.013,0.0,48.9,0.0,3
2026-07-11,'16:33:40.684',267.819,0.0,48.9,0.0,3
2026-07-11,'16:33:40.784',263.839,0.0,48.8,0.0,3
2026-07-11,'16:33:40.884',181.443,0.0,48.8,0.0,3
2026-07-11,'16:33:40.983',125.439,0.0,48.9,0.0,3
2026-07-11,'16:33:41.083',90.785,0.0,48.8,0.0,3
2026-07-11,'16:33:41.183',73.071,0.0,48.1,0.0,3
2026-07-11,'16:33:41.284',43.264,0.0,48.4,0.0,3
2026-07-11,'16:33:41.885',214.201,0.0,48.9,0.0,3
2026-07-11,'16:33:41.907',214.248,0.0,49.3,0.0,3
2026-07-11,'16:33:42.006',270.598,0.0,49.4,0.0,3
2026-07-11,'16:33:42.105',287.665,0.0,49.4,0.0,3
2026-07-11,'16:33:42.205',227.556,0.0,48.9,0.0,3
2026-07-11,'16:33:42.306',138.976,0.0,48.5,0.0,3
2026-07-11,'16:33:42.406',97.827,0.0,48.6,0.0,3
2026-07-11,'16:33:42.505',90.280,0.0,48.8,0.0,3
2026-07-11,'16:33:42.605',79.369,0.0,48.8,0.0,3
2026-07-11,'16:33:42.705',72.732,0.0,48.0,0.0,3
2026-07-11,'16:33:43.823',44.683,0.0,48.0,0.0,3
2026-07-11,'16:33:43.844',45.214,0.0,48.0,0.0,3
2026-07-11,'16:33:43.944',42.171,0.0,48.3,0.0,3
2026-07-11,'16:33:44.043',45.056,0.0,48.8,0.0,3
2026-07-11,'16:33:44.143',43.893,0.0,49.2,0.0,3
2026-07-11,'16:33:44.243',55.230,0.0,49.6,0.0,3
2026-07-11,'16:33:44.344',51.163,0.0,49.1,0.0,3
2026-07-11,'16:33:44.444',57.077,0.0,49.2,0.0,3
2026-07-11,'16:33:44.544',75.830,0.0,49.3,0.0,3
2026-07-11,'16:33:44.643',85.378,0.0,49.0,0.0,3
2026-07-11,'16:33:45.257',230.547,0.0,49.0,0.0,3
2026-07-11,'16:33:45.277',230.817,0.0,49.0,0.0,3
2026-07-11,'16:33:45.379',235.951,0.0,48.5,0.0,3
2026-07-11,'16:33:45.478',238.613,0.0,47.6,0.0,3
2026-07-11,'16:33:45.578',153.777,0.0,47.9,0.0,3
2026-07-11,'16:33:45.677',127.919,0.0,48.1,0.0,3
2026-07-11,'16:33:45.777',108.227,0.0,48.2,0.0,3
2026-07-11,'16:33:45.878',88.057,0.0,47.9,0.0,3
2026-07-11,'16:33:45.978',72.272,0.0,48.2,0.0,3
2026-07-11,'16:33:46.078',97.028,0.0,48.3,0.0,3
2026-07-11,'16:33:47.412',129.809,0.0,48.4,0.0,3
2026-07-11,'16:33:47.433',129.981,0.0,48.4,0.0,3
2026-07-11,'16:33:47.533',130.827,0.0,48.4,0.0,3
2026-07-11,'16:33:47.633',111.163,0.0,47.3,0.0,3
2026-07-11,'16:33:47.732',87.920,0.0,48.0,0.0,3
2026-07-11,'16:33:47.832',65.682,0.0,48.0,0.0,3
2026-07-11,'16:33:47.933',59.170,0.0,48.0,0.0,3
2026-07-11,'16:33:48.033',59.680,0.0,48.4,0.0,3
2026-07-11,'16:33:48.133',92.154,0.0,48.4,0.0,3
2026-07-11,'16:33:48.232',129.511,0.0,48.4,0.0,3
2026-07-11,'16:33:49.044',263.267,0.0,48.7,0.0,3
2026-07-11,'16:33:49.066',263.271,0.0,48.8,0.0,3
2026-07-11,'16:33:49.164',271.971,0.0,48.8,0.0,3
2026-07-11,'16:33:49.264',264.917,0.0,47.6,0.0,3
2026-07-11,'16:33:49.365',164.022,0.0,47.7,0.0,3
2026-07-11,'16:33:49.465',96.564,0.0,47.6,0.0,3
2026-07-11,'16:33:49.565',74.635,0.0,48.0,0.0,3
2026-07-11,'16:33:49.665',92.689,0.0,48.3,0.0,3
2026-07-11,'16:33:50.367',125.436,0.0,48.4,0.0,3
2026-07-11,'16:33:50.388',128.389,0.0,48.5,0.0,3
2026-07-11,'16:33:51.087',195.418,0.0,48.6,0.0,3
2026-07-11,'16:33:51.109',195.372,0.0,48.7,0.0,3
2026-07-11,'16:33:51.208',237.256,0.0,48.8,0.0,3
2026-07-11,'16:33:51.307',248.566,0.0,48.9,0.0,3
2026-07-11,'16:33:51.407',224.306,0.0,48.9,0.0,3
2026-07-11,'16:33:51.507',171.459,0.0,48.8,0.0,3
2026-07-11,'16:33:51.608',121.252,0.0,48.9,0.0,3
2026-07-11,'16:33:51.708',79.321,0.0,52.4,0.0,3
2026-07-11,'16:33:51.807',82.716,0.0,52.2,0.0,3
2026-07-11,'16:33:51.907',77.582,0.0,51.1,0.0,3
2026-07-11,'16:33:52.621',181.355,0.0,50.8,0.0,3
2026-07-11,'16:33:52.642',181.671,0.0,50.7,0.0,3
2026-07-11,'16:33:52.742',181.662,0.0,49.7,0.0,3
2026-07-11,'16:33:53.539',185.428,0.0,48.3,0.0,3
2026-07-11,'16:33:53.559',185.364,0.0,47.5,0.0,3
2026-07-11,'16:33:53.661',120.258,0.0,47.7,0.0,3
2026-07-11,'16:33:53.760',94.025,0.0,47.0,0.0,3
2026-07-11,'16:33:53.859',101.132,0.0,47.5,0.0,3
2026-07-11,'16:33:53.959',91.689,0.0,47.7,0.0,3
2026-07-11,'16:33:54.059',76.659,0.0,47.8,0.0,3
2026-07-11,'16:33:54.766',44.228,0.0,48.3,0.0,3
2026-07-11,'16:33:54.788',55.438,0.0,48.7,0.0,3
2026-07-11,'16:33:54.887',194.440,0.0,48.8,0.0,3
2026-07-11,'16:33:54.986',232.013,0.0,48.7,0.0,3
2026-07-11,'16:33:55.086',245.894,0.0,48.6,0.0,3
2026-07-11,'16:33:55.186',178.668,0.0,48.3,0.0,3
2026-07-11,'16:33:55.287',112.078,0.0,48.4,0.0,3
2026-07-11,'16:33:55.387',82.912,0.0,48.5,0.0,3
2026-07-11,'16:33:55.486',86.064,0.0,48.7,0.0,3
2026-07-11,'16:33:55.586',81.172,0.0,48.6,0.0,3
2026-07-11,'16:33:57.117',200.090,0.0,48.6,0.0,3
2026-07-11,'16:33:57.138',200.096,0.0,48.5,0.0,3
2026-07-11,'16:33:57.237',206.969,0.0,48.4,0.0,3
2026-07-11,'16:33:57.337',212.991,0.0,48.8,0.0,3
2026-07-11,'16:33:57.438',131.200,0.0,48.4,0.0,3
2026-07-11,'16:33:57.538',89.822,0.0,48.6,0.0,3
2026-07-11,'16:33:57.637',82.592,0.0,48.9,0.0,3
2026-07-11,'16:33:57.737',70.480,0.0,48.8,0.0,3
2026-07-11,'16:33:57.837',66.776,0.0,48.0,0.0,3
2026-07-11,'16:33:57.938',42.063,0.0,48.0,0.0,3
2026-07-11,'16:33:58.754',48.911,0.0,48.7,0.0,3
2026-07-11,'16:33:58.775',49.052,0.0,49.3,0.0,3
2026-07-11,'16:33:58.874',75.141,0.0,49.6,0.0,3
2026-07-11,'16:33:58.974',97.671,0.0,49.2,0.0,3
2026-07-11,'16:33:59.075',98.735,0.0,48.8,0.0,3
2026-07-11,'16:33:59.175',81.252,0.0,48.8,0.0,3
2026-07-11,'16:33:59.274',71.764,0.0,49.2,0.0,3
2026-07-11,'16:33:59.374',59.001,0.0,49.0,0.0,3
2026-07-11,'16:34:00.397',60.611,0.0,48.5,0.0,3
2026-07-11,'16:34:00.418',65.785,0.0,48.1,0.0,3
2026-07-11,'16:34:01.103',204.925,0.0,47.4,0.0,3
2026-07-11,'16:34:01.125',205.019,0.0,46.8,0.0,3
2026-07-11,'16:34:01.225',220.436,0.0,46.8,0.0,3
2026-07-11,'16:34:01.325',225.210,0.0,47.4,0.0,3
2026-07-11,'16:34:01.424',146.900,0.0,47.7,0.0,3
2026-07-11,'16:34:01.524',91.963,0.0,48.0,0.0,3
2026-07-11,'16:34:01.625',70.831,0.0,47.9,0.0,3
2026-07-11,'16:34:01.725',59.323,0.0,48.3,0.0,3
2026-07-11,'16:34:01.824',85.416,0.0,48.4,0.0,3
2026-07-11,'16:34:01.924',85.885,0.0,48.4,0.0,3
2026-07-11,'16:34:03.041',78.412,0.0,48.0,0.0,3
2026-07-11,'16:34:03.061',78.688,0.0,47.8,0.0,3
2026-07-11,'16:34:03.162',86.393,0.0,47.4,0.0,3
2026-07-11,'16:34:03.262',81.659,0.0,47.5,0.0,3
2026-07-11,'16:34:03.362',87.294,0.0,48.0,0.0,3
2026-07-11,'16:34:03.461',84.857,0.0,48.2,0.0,3
2026-07-11,'16:34:03.561',78.256,0.0,48.2,0.0,3
2026-07-11,'16:34:03.662',73.020,0.0,48.2,0.0,3
2026-07-11,'16:34:03.762',62.452,0.0,48.5,0.0,3
2026-07-11,'16:34:03.862',86.942,0.0,48.5,0.0,3
2026-07-11,'16:34:06.417',230.643,0.0,48.7,0.0,3
2026-07-11,'16:34:07.030',232.916,0.0,48.9,0.0,3
2026-07-11,'16:34:07.753',232.927,0.0,49.0,0.0,3
2026-07-11,'16:34:07.774',234.405,0.0,49.1,0.0,3
2026-07-11,'16:34:07.874',263.149,0.0,48.8,0.0,3
2026-07-11,'16:34:07.974',272.495,0.0,48.4,0.0,3
2026-07-11,'16:34:08.073',200.601,0.0,48.5,0.0,3
2026-07-11,'16:34:08.173',138.798,0.0,48.5,0.0,3
2026-07-11,'16:34:08.274',96.386,0.0,48.2,0.0,3
2026-07-11,'16:34:08.374',76.659,0.0,48.4,0.0,3
2026-07-11,'16:34:08.474',94.319,0.0,48.5,0.0,3
2026-07-11,'16:34:08.573',123.332,0.0,48.6,0.0,3
2026-07-11,'16:34:09.205',118.104,0.0,48.5,0.0,3
2026-07-11,'16:34:09.225',122.649,0.0,48.5,0.0,3
2026-07-11,'16:34:09.326',231.137,0.0,48.7,0.0,3
2026-07-11,'16:34:09.426',241.603,0.0,48.7,0.0,3
2026-07-11,'16:34:10.093',244.467,0.0,48.7,0.0,3
2026-07-11,'16:34:10.114',245.206,0.0,48.8,0.0,3
2026-07-11,'16:34:10.213',245.088,0.0,49.1,0.0,3
2026-07-11,'16:34:10.314',235.871,0.0,48.8,0.0,3
2026-07-11,'16:34:10.414',274.006,0.0,48.7,0.0,3
2026-07-11,'16:34:10.514',247.510,0.0,48.9,0.0,3
2026-07-11,'16:34:11.120',212.900,0.0,49.0,0.0,3
2026-07-11,'16:34:11.141',214.794,0.0,49.0,0.0,3
2026-07-11,'16:34:11.241',238.318,0.0,49.3,0.0,3
2026-07-11,'16:34:11.340',235.440,0.0,49.3,0.0,3
2026-07-11,'16:34:11.441',234.940,0.0,49.1,0.0,3
2026-07-11,'16:34:11.541',182.432,0.0,49.0,0.0,3
2026-07-11,'16:34:11.640',137.852,0.0,49.0,0.0,3
2026-07-11,'16:34:11.740',110.021,0.0,48.9,0.0,3
2026-07-11,'16:34:11.840',89.070,0.0,48.2,0.0,3
2026-07-11,'16:34:11.941',54.970,0.0,48.5,0.0,3
2026-07-11,'16:34:13.057',66.113,0.0,48.7,0.0,3
2026-07-11,'16:34:13.080',66.101,0.0,48.9,0.0,3
2026-07-11,'16:34:13.177',93.445,0.0,48.9,0.0,3
2026-07-11,'16:34:13.277',92.919,0.0,48.8,0.0,3
2026-07-11,'16:34:13.377',82.094,0.0,48.2,0.0,3
2026-07-11,'16:34:13.478',45.946,0.0,48.3,0.0,3
2026-07-11,'16:34:13.578',53.256,0.0,49.0,0.0,3
2026-07-11,'16:34:13.677',83.837,0.0,49.0,0.0,3
2026-07-11,'16:34:13.777',239.819,0.0,49.2,0.0,3
2026-07-11,'16:34:13.877',274.989,0.0,49.1,0.0,3
2026-07-11,'16:34:14.493',282.499,0.0,48.7,0.0,3
2026-07-11,'16:34:14.514',283.070,0.0,48.5,0.0,3
2026-07-11,'16:34:14.614',212.571,0.0,48.1,0.0,3
2026-07-11,'16:34:14.713',141.879,0.0,47.3,0.0,3
2026-07-11,'16:34:14.813',104.187,0.0,47.6,0.0,3
2026-07-11,'16:34:14.913',80.200,0.0,47.3,0.0,3
2026-07-11,'16:34:15.014',69.802,0.0,47.3,0.0,3
2026-07-11,'16:34:15.114',67.880,0.0,47.6,0.0,3
2026-07-11,'16:34:15.213',80.327,0.0,47.9,0.0,3
2026-07-11,'16:34:15.313',75.359,0.0,48.0,0.0,3
2026-07-11,'16:34:16.430',74.313,0.0,47.7,0.0,3
2026-07-11,'16:34:16.450',74.686,0.0,47.4,0.0,3
2026-07-11,'16:34:16.551',102.314,0.0,47.2,0.0,3
2026-07-11,'16:34:16.651',102.088,0.0,47.3,0.0,3
2026-07-11,'16:34:16.751',104.666,0.0,47.7,0.0,3
2026-07-11,'16:34:16.850',89.693,0.0,48.0,0.0,3
2026-07-11,'16:34:16.950',77.788,0.0,48.0,0.0,3
2026-07-11,'16:34:17.051',72.610,0.0,48.0,0.0,3
2026-07-11,'16:34:17.151',233.365,0.0,48.6,0.0,3
2026-07-11,'16:34:17.251',283.056,0.0,48.6,0.0,3
2026-07-11,'16:34:33.504',348.408,0.0,45.2,0.0,3
2026-07-11,'16:34:33.604',340.389,0.0,45.5,0.0,3
2026-07-11,'16:34:33.704',265.739,0.0,46.3,0.0,3
2026-07-11,'16:34:33.805',172.028,0.0,46.7,0.0,3
2026-07-11,'16:34:33.905',124.011,0.0,47.7,0.0,3
2026-07-11,'16:34:34.005',89.889,0.0,48.3,0.0,3
2026-07-11,'16:34:34.104',77.292,0.0,48.5,0.0,3
2026-07-11,'16:34:34.204',66.521,0.0,48.9,0.0,3
2026-07-11,'16:34:34.304',53.428,0.0,49.7,0.0,3
2026-07-11,'16:34:34.405',42.827,0.0,64.0,0.0,3
2026-07-11,'16:34:35.242',63.386,0.0,63.4,0.0,3
2026-07-11,'16:34:35.263',63.529,0.0,61.7,0.0,3
2026-07-11,'16:34:35.362',85.364,0.0,57.9,0.0,3
2026-07-11,'16:34:35.463',90.102,0.0,55.3,0.0,3
2026-07-11,'16:34:35.563',84.505,0.0,53.3,0.0,3
2026-07-11,'16:34:36.151',66.287,0.0,52.2,0.0,3
2026-07-11,'16:34:36.172',69.593,0.0,51.5,0.0,3
2026-07-11,'16:34:36.271',313.623,0.0,50.4,0.0,3
2026-07-11,'16:34:36.371',361.846,0.0,49.5,0.0,3
2026-07-11,'16:34:36.472',379.458,0.0,48.9,0.0,3
2026-07-11,'16:34:37.076',344.558,0.0,48.8,0.0,3
2026-07-11,'16:34:37.098',344.646,0.0,48.7,0.0,3
2026-07-11,'16:34:37.196',324.377,0.0,48.8,0.0,3
2026-07-11,'16:34:37.296',315.871,0.0,49.0,0.0,3
2026-07-11,'16:34:37.396',249.003,0.0,48.4,0.0,3
2026-07-11,'16:34:37.497',167.075,0.0,48.1,0.0,3
2026-07-11,'16:34:37.597',120.746,0.0,48.3,0.0,3
2026-07-11,'16:34:37.696',89.301,0.0,48.6,0.0,3
2026-07-11,'16:34:37.796',73.335,0.0,48.7,0.0,3
2026-07-11,'16:34:37.896',75.748,0.0,48.3,0.0,3
2026-07-11,'16:34:38.507',69.877,0.0,48.3,0.0,3
2026-07-11,'16:34:38.528',69.738,0.0,48.3,0.0,3
2026-07-11,'16:34:38.628',298.108,0.0,47.5,0.0,3
2026-07-11,'16:34:39.217',344.780,0.0,47.5,0.0,3
2026-07-11,'16:34:39.239',345.550,0.0,47.5,0.0,3
2026-07-11,'16:34:39.337',402.426,0.0,47.4,0.0,3
2026-07-11,'16:34:39.437',330.083,0.0,46.8,0.0,3
2026-07-11,'16:34:39.537',271.241,0.0,46.9,0.0,3
2026-07-11,'16:34:39.638',186.830,0.0,47.0,0.0,3
2026-07-11,'16:34:39.738',132.652,0.0,47.4,0.0,3
2026-07-11,'16:34:40.359',293.954,0.0,47.9,0.0,3
2026-07-11,'16:34:40.380',297.032,0.0,48.4,0.0,3
2026-07-11,'16:34:40.479',355.504,0.0,48.5,0.0,3
2026-07-11,'16:34:40.579',374.338,0.0,48.5,0.0,3
2026-07-11,'16:34:40.680',276.379,0.0,48.3,0.0,3
2026-07-11,'16:34:40.780',178.718,0.0,48.3,0.0,3
2026-07-11,'16:34:40.880',123.054,0.0,48.5,0.0,3
2026-07-11,'16:34:40.979',97.761,0.0,48.6,0.0,3
2026-07-11,'16:34:41.079',77.138,0.0,48.5,0.0,3
2026-07-11,'16:34:41.180',58.397,0.0,47.9,0.0,3
2026-07-11,'16:34:42.284',69.970,0.0,48.7,0.0,3
2026-07-11,'16:34:42.305',88.137,0.0,49.4,0.0,3
2026-07-11,'16:34:42.405',270.407,0.0,49.6,0.0,3
2026-07-11,'16:34:42.504',314.348,0.0,49.3,0.0,3
2026-07-11,'16:34:42.604',321.083,0.0,48.9,0.0,3
2026-07-11,'16:34:42.704',213.773,0.0,48.4,0.0,3
2026-07-11,'16:34:42.805',122.432,0.0,48.5,0.0,3
2026-07-11,'16:34:42.905',80.422,0.0,48.6,0.0,3
2026-07-11,'16:34:43.004',61.224,0.0,48.7,0.0,3
2026-07-11,'16:34:43.104',57.980,0.0,48.8,0.0,3
2026-07-11,'16:34:43.718',260.264,0.0,47.7,0.0,3
2026-07-11,'16:34:43.738',260.352,0.0,47.1,0.0,3
2026-07-11,'16:34:43.839',278.150,0.0,47.0,0.0,3
2026-07-11,'16:34:43.939',286.544,0.0,46.8,0.0,3
2026-07-11,'16:34:44.038',176.581,0.0,47.3,0.0,3
2026-07-11,'16:34:44.138',116.915,0.0,47.5,0.0,3
2026-07-11,'16:34:44.238',94.589,0.0,47.3,0.0,3
2026-07-11,'16:34:44.339',84.063,0.0,47.5,0.0,3
2026-07-11,'16:34:44.439',89.112,0.0,47.9,0.0,3
2026-07-11,'16:34:44.538',78.747,0.0,48.2,0.0,3
2026-07-11,'16:34:45.671',73.657,0.0,48.4,0.0,3
2026-07-11,'16:34:45.692',89.836,0.0,48.6,0.0,3
2026-07-11,'16:34:45.792',288.174,0.0,48.1,0.0,3
2026-07-11,'16:34:45.892',315.728,0.0,48.1,0.0,3
2026-07-11,'16:34:45.992',320.784,0.0,48.2,0.0,3
2026-07-11,'16:34:46.092',206.589,0.0,48.5,0.0,3
2026-07-11,'16:34:46.191',116.019,0.0,48.7,0.0,3
2026-07-11,'16:34:46.291',91.072,0.0,48.7,0.0,3
2026-07-11,'16:34:46.391',70.265,0.0,48.0,0.0,3
2026-07-11,'16:34:46.492',48.267,0.0,62.9,0.0,3
2026-07-11,'16:34:47.200',308.949,0.0,58.8,0.0,3
2026-07-11,'16:34:47.221',309.162,0.0,56.1,0.0,3
2026-07-11,'16:34:47.320',328.163,0.0,53.6,0.0,3
2026-07-11,'16:34:47.420',339.886,0.0,52.6,0.0,3
2026-07-11,'16:34:47.521',211.861,0.0,50.5,0.0,3
2026-07-11,'16:34:47.621',140.908,0.0,50.1,0.0,3
2026-07-11,'16:34:47.720',121.790,0.0,49.9,0.0,3
2026-07-11,'16:34:47.820',119.047,0.0,49.3,0.0,3
2026-07-11,'16:34:47.920',102.360,0.0,48.2,0.0,3
2026-07-11,'16:34:48.021',145.015,0.0,48.2,0.0,3
2026-07-11,'16:34:49.138',160.887,0.0,48.8,0.0,3
2026-07-11,'16:34:49.159',161.791,0.0,49.3,0.0,3
2026-07-11,'16:34:49.259',310.155,0.0,48.8,0.0,3
2026-07-11,'16:34:49.358',849.435,0.0,47.9,0.0,3
2026-07-11,'16:34:49.458',1074.495,0.0,47.9,0.0,3
2026-07-11,'16:34:49.559',1349.766,0.0,48.5,0.0,3
2026-07-11,'16:34:49.659',1360.612,0.0,46.5,0.0,3
2026-07-11,'16:34:49.759',1315.037,0.0,46.9,0.0,3
2026-07-11,'16:34:49.858',1210.661,0.0,47.7,0.0,3
2026-07-11,'16:34:49.957',1030.905,0.0,47.7,0.0,3
2026-07-11,'16:34:50.573',1302.200,0.0,48.3,0.0,3
2026-07-11,'16:34:50.593',1300.386,0.0,48.7,0.0,3
2026-07-11,'16:34:50.694',1168.912,0.0,47.0,0.0,3
2026-07-11,'16:34:50.794',1286.962,0.0,46.1,0.0,3
2026-07-11,'16:34:50.893',1170.213,0.0,46.1,0.0,3
2026-07-11,'16:34:50.993',1292.504,0.0,46.5,0.0,3
2026-07-11,'16:34:51.093',1252.154,0.0,46.5,0.0,3
2026-07-11,'16:34:51.194',1146.803,0.0,46.9,0.0,3
2026-07-11,'16:34:51.294',904.719,0.0,47.6,0.0,3
2026-07-11,'16:34:51.394',768.663,0.0,62.5,0.0,3
2026-07-11,'16:34:52.509',736.813,0.0,75.4,0.0,3
2026-07-11,'16:34:52.530',733.336,0.0,86.3,0.0,3
2026-07-11,'16:34:52.629',1237.279,0.0,93.6,0.0,3
2026-07-11,'16:34:52.729',1422.641,0.0,77.9,0.0,3
2026-07-11,'16:34:52.830',1483.070,0.0,67.6,0.0,3
2026-07-11,'16:34:52.930',1241.837,0.0,61.3,0.0,3
2026-07-11,'16:34:53.029',948.292,0.0,58.0,0.0,3
2026-07-11,'16:34:53.129',819.732,0.0,71.2,0.0,3
2026-07-11,'16:34:53.229',734.583,0.0,82.6,0.0,3
2026-07-11,'16:34:53.330',700.584,0.0,92.4,0.0,3
2026-07-11,'16:34:54.053',1192.263,0.0,99.8,0.0,3
2026-07-11,'16:34:54.075',1192.778,0.0,105.9,0.0,3
2026-07-11,'16:34:54.174',1375.740,0.0,86.6,0.0,3
2026-07-11,'16:34:54.273',1413.993,0.0,74.9,0.0,3
2026-07-11,'16:34:54.373',1170.158,0.0,77.7,0.0,3
2026-07-11,'16:34:54.474',922.660,0.0,74.5,0.0,3
2026-07-11,'16:34:54.574',1052.598,0.0,64.5,0.0,3
2026-07-11,'16:34:54.674',1087.790,0.0,59.2,0.0,3
2026-07-11,'16:34:54.773',1076.174,0.0,55.9,0.0,3
2026-07-11,'16:34:54.873',887.121,0.0,69.3,0.0,3
2026-07-11,'16:34:55.985',1046.860,0.0,81.0,0.0,3
2026-07-11,'16:34:56.006',1043.512,0.0,91.0,0.0,3
2026-07-11,'16:34:56.106',1163.936,0.0,74.1,0.0,3
2026-07-11,'16:34:56.206',1303.351,0.0,64.1,0.0,3
2026-07-11,'16:34:56.305',1254.471,0.0,59.2,0.0,3
2026-07-11,'16:34:56.405',993.317,0.0,56.1,0.0,3
2026-07-11,'16:34:56.505',828.899,0.0,69.5,0.0,3
2026-07-11,'16:34:56.606',733.724,0.0,81.1,0.0,3
2026-07-11,'16:34:56.706',747.093,0.0,91.3,0.0,3
2026-07-11,'16:34:56.806',739.376,0.0,99.8,0.0,3
2026-07-11,'16:34:57.422',1363.375,0.0,83.7,0.0,3
2026-07-11,'16:34:57.443',1364.396,0.0,73.2,0.0,3
2026-07-11,'16:34:57.542',1508.320,0.0,64.2,0.0,3
2026-07-11,'16:34:57.643',1556.668,0.0,58.5,0.0,3
2026-07-11,'16:34:57.743',1200.201,0.0,55.5,0.0,3
2026-07-11,'16:34:57.843',959.517,0.0,54.5,0.0,3
2026-07-11,'16:34:57.942',1374.043,0.0,53.5,0.0,3
2026-07-11,'16:34:58.042',1524.468,0.0,51.4,0.0,3
2026-07-11,'16:34:58.142',1571.872,0.0,50.3,0.0,3
2026-07-11,'16:34:58.243',1230.615,0.0,49.8,0.0,3
2026-07-11,'16:34:59.359',961.205,0.0,50.2,0.0,3
2026-07-11,'16:34:59.381',962.031,0.0,50.6,0.0,3
2026-07-11,'16:34:59.480',825.494,0.0,64.2,0.0,3
2026-07-11,'16:34:59.579',804.495,0.0,74.4,0.0,3
2026-07-11,'16:34:59.680',766.927,0.0,85.2,0.0,3
2026-07-11,'16:34:59.779',703.467,0.0,94.5,0.0,3
2026-07-11,'16:34:59.880',675.276,0.0,102.8,0.0,3
2026-07-11,'16:34:59.980',710.140,0.0,109.8,0.0,3
2026-07-11,'16:35:00.079',826.324,0.0,102.5,0.0,3
2026-07-11,'16:35:00.179',814.028,0.0,93.7,0.0,3
2026-07-11,'16:35:00.892',1339.885,0.0,81.2,0.0,3
2026-07-11,'16:35:00.914',1335.233,0.0,72.8,0.0,3
2026-07-11,'16:35:01.013',1326.733,0.0,64.2,0.0,3
2026-07-11,'16:35:01.112',1343.888,0.0,58.3,0.0,3
2026-07-11,'16:35:01.212',923.643,0.0,57.4,0.0,3
2026-07-11,'16:35:01.312',742.416,0.0,70.7,0.0,3
2026-07-11,'16:35:01.413',777.754,0.0,81.2,0.0,3
2026-07-11,'16:35:01.513',786.855,0.0,71.9,0.0,3
2026-07-11,'16:35:01.613',1233.389,0.0,67.2,0.0,3
2026-07-11,'16:35:01.712',1255.445,0.0,61.1,0.0,3
2026-07-11,'16:35:03.038',1429.260,0.0,58.8,0.0,3
2026-07-11,'16:35:03.060',1429.701,0.0,57.4,0.0,3
2026-07-11,'16:35:03.160',1148.603,0.0,55.3,0.0,3
2026-07-11,'16:35:03.259',1279.499,0.0,54.4,0.0,3
2026-07-11,'16:35:03.359',1225.580,0.0,53.0,0.0,3
2026-07-11,'16:35:03.459',1289.588,0.0,51.1,0.0,3
2026-07-11,'16:35:03.560',1126.742,0.0,50.6,0.0,3
2026-07-11,'16:35:03.660',977.618,0.0,64.3,0.0,3
2026-07-11,'16:35:03.759',816.133,0.0,70.4,0.0,3
2026-07-11,'16:35:03.859',841.161,0.0,81.0,0.0,3
2026-07-11,'16:35:04.674',1275.500,0.0,72.5,0.0,3
2026-07-11,'16:35:04.696',1275.835,0.0,66.8,0.0,3
2026-07-11,'16:35:04.794',1267.676,0.0,59.6,0.0,3
2026-07-11,'16:35:04.894',1244.343,0.0,55.0,0.0,3
2026-07-11,'16:35:04.994',919.857,0.0,67.2,0.0,3
2026-07-11,'16:35:05.095',1028.689,0.0,62.1,0.0,3
2026-07-11,'16:35:05.195',1148.185,0.0,59.6,0.0,3
2026-07-11,'16:35:05.294',1164.093,0.0,59.6,0.0,3
2026-07-11,'16:35:05.394',1141.429,0.0,61.8,0.0,3
2026-07-11,'16:35:06.210',1376.547,0.0,63.5,0.0,3
2026-07-11,'16:35:06.825',1377.127,0.0,64.6,0.0,3
2026-07-11,'16:35:06.846',1381.451,0.0,65.3,0.0,3
2026-07-11,'16:35:06.946',1506.641,0.0,58.6,0.0,3
2026-07-11,'16:35:07.046',1558.539,0.0,54.6,0.0,3
2026-07-11,'16:35:07.146',1270.341,0.0,52.9,0.0,3
2026-07-11,'16:35:07.246',984.154,0.0,52.4,0.0,3
2026-07-11,'16:35:07.345',817.056,0.0,65.0,0.0,3
2026-07-11,'16:35:07.445',795.100,0.0,76.7,0.0,3
2026-07-11,'16:35:07.546',756.732,0.0,87.0,0.0,3
2026-07-11,'16:35:07.646',783.965,0.0,96.3,0.0,3
2026-07-11,'16:35:08.358',1153.785,0.0,84.9,0.0,3
2026-07-11,'16:35:08.379',1156.958,0.0,77.4,0.0,3
2026-07-11,'16:35:08.479',1515.880,0.0,66.9,0.0,3
2026-07-11,'16:35:09.169',1632.349,0.0,59.9,0.0,3
2026-07-11,'16:35:09.191',1633.237,0.0,55.3,0.0,3
2026-07-11,'16:35:09.290',1623.548,0.0,53.6,0.0,3
2026-07-11,'16:35:09.390',1454.584,0.0,50.3,0.0,3
2026-07-11,'16:35:09.490',1380.523,0.0,49.1,0.0,3
2026-07-11,'16:35:09.591',1342.120,0.0,49.3,0.0,3
2026-07-11,'16:35:09.691',1362.193,0.0,49.3,0.0,3
2026-07-11,'16:35:10.299',1359.420,0.0,49.4,0.0,3
2026-07-11,'16:35:10.320',1367.632,0.0,49.5,0.0,3
2026-07-11,'16:35:10.419',1450.449,0.0,49.7,0.0,3
2026-07-11,'16:35:10.519',1373.874,0.0,49.3,0.0,3
2026-07-11,'16:35:10.620',1272.279,0.0,48.9,0.0,3
2026-07-11,'16:35:10.720',979.567,0.0,49.2,0.0,3
2026-07-11,'16:35:10.819',801.180,0.0,49.8,0.0,3
2026-07-11,'16:35:10.919',754.258,0.0,64.2,0.0,3
2026-07-11,'16:35:11.019',705.722,0.0,76.4,0.0,3
2026-07-11,'16:35:11.120',690.847,0.0,87.0,0.0,3
2026-07-11,'16:35:12.339',1268.566,0.0,82.2,0.0,3
2026-07-11,'16:35:12.361',1274.646,0.0,77.7,0.0,3
2026-07-11,'16:35:12.459',1548.605,0.0,67.8,0.0,3
2026-07-11,'16:35:12.559',1633.223,0.0,61.3,0.0,3
2026-07-11,'16:35:12.660',1384.061,0.0,56.8,0.0,3
2026-07-11,'16:35:12.760',1129.560,0.0,55.2,0.0,3
2026-07-11,'16:35:12.859',1014.370,0.0,53.0,0.0,3
2026-07-11,'16:35:12.959',969.973,0.0,52.5,0.0,3
2026-07-11,'16:35:13.059',941.882,0.0,53.9,0.0,3
2026-07-11,'16:35:13.160',1067.774,0.0,53.1,0.0,3
2026-07-11,'16:35:13.881',1142.481,0.0,51.9,0.0,3
2026-07-11,'16:35:13.902',1136.742,0.0,51.2,0.0,3
2026-07-11,'16:35:14.001',1083.710,0.0,50.6,0.0,3
2026-07-11,'16:35:14.102',916.638,0.0,56.7,0.0,3
2026-07-11,'16:35:14.202',745.804,0.0,70.1,0.0,3
2026-07-11,'16:35:14.302',730.603,0.0,82.0,0.0,3
2026-07-11,'16:35:14.401',735.145,0.0,91.9,0.0,3
2026-07-11,'16:35:14.501',733.865,0.0,100.1,0.0,3
2026-07-11,'16:35:14.601',731.885,0.0,107.2,0.0,3
2026-07-11,'16:35:14.702',704.870,0.0,113.2,0.0,3
2026-07-11,'16:35:15.813',1348.737,0.0,93.8,0.0,3
2026-07-11,'16:35:15.835',1350.423,0.0,80.7,0.0,3
2026-07-11,'16:35:15.933',1439.605,0.0,68.6,0.0,3
2026-07-11,'16:35:16.033',1482.673,0.0,61.1,0.0,3
2026-07-11,'16:35:16.133',1069.319,0.0,57.4,0.0,3
2026-07-11,'16:35:16.234',860.427,0.0,70.6,0.0,3
2026-07-11,'16:35:16.334',734.101,0.0,82.0,0.0,3
2026-07-11,'16:35:16.434',743.077,0.0,92.0,0.0,3
2026-07-11,'16:35:16.533',858.691,0.0,78.1,0.0,3
2026-07-11,'16:35:16.633',913.462,0.0,68.3,0.0,3
2026-07-11,'16:35:17.250',1195.652,0.0,62.2,0.0,3
2026-07-11,'16:35:17.271',1204.392,0.0,58.3,0.0,3
2026-07-11,'16:35:17.371',1386.230,0.0,55.4,0.0,3
2026-07-11,'16:35:17.471',1418.653,0.0,53.5,0.0,3
2026-07-11,'16:35:17.570',1186.359,0.0,52.3,0.0,3
2026-07-11,'16:35:17.671',921.954,0.0,66.1,0.0,3
2026-07-11,'16:35:17.770',845.895,0.0,69.8,0.0,3
2026-07-11,'16:35:17.871',886.314,0.0,68.3,0.0,3
2026-07-11,'16:35:17.971',968.114,0.0,63.3,0.0,3
2026-07-11,'16:35:18.070',1105.068,0.0,61.1,0.0,3
2026-07-11,'16:35:19.289',1056.564,0.0,58.3,0.0,3
2026-07-11,'16:35:19.309',1060.258,0.0,56.4,0.0,3
2026-07-11,'16:35:19.410',1293.292,0.0,56.4,0.0,3
2026-07-11,'16:35:19.510',1207.769,0.0,53.9,0.0,3
2026-07-11,'16:35:19.609',1324.793,0.0,52.4,0.0,3
2026-07-11,'16:35:19.708',1150.024,0.0,51.9,0.0,3
2026-07-11,'16:35:19.809',1025.636,0.0,51.1,0.0,3
2026-07-11,'16:35:19.910',1089.828,0.0,65.2,0.0,3
2026-07-11,'16:35:20.010',1114.183,0.0,59.2,0.0,3
2026-07-11,'16:35:20.109',1123.433,0.0,56.0,0.0,3
2026-07-11,'16:35:20.725',1232.826,0.0,56.1,0.0,3
2026-07-11,'16:35:20.746',1233.064,0.0,56.3,0.0,3
2026-07-11,'16:35:20.845',1128.986,0.0,53.9,0.0,3
2026-07-11,'16:35:20.946',1093.619,0.0,53.8,0.0,3
2026-07-11,'16:35:21.046',885.567,0.0,67.8,0.0,3
2026-07-11,'16:35:21.145',781.626,0.0,79.6,0.0,3
2026-07-11,'16:35:21.245',737.614,0.0,89.6,0.0,3
2026-07-11,'16:35:21.345',1000.073,0.0,98.2,0.0,3
2026-07-11,'16:35:21.446',1226.921,0.0,81.9,0.0,3
2026-07-11,'16:35:21.546',1235.979,0.0,72.2,0.0,3
2026-07-11,'16:35:22.661',1046.800,0.0,65.3,0.0,3
2026-07-11,'16:35:22.683',1050.091,0.0,60.8,0.0,3
2026-07-11,'16:35:22.781',983.430,0.0,56.0,0.0,3
2026-07-11,'16:35:22.881',1057.054,0.0,53.8,0.0,3
2026-07-11,'16:35:22.982',1256.746,0.0,52.2,0.0,3
2026-07-11,'16:35:23.082',1064.509,0.0,48.8,0.0,3
2026-07-11,'16:35:23.182',835.523,0.0,48.6,0.0,3
2026-07-11,'16:35:23.281',384.733,0.0,48.7,0.0,3
2026-07-11,'16:35:23.381',223.592,0.0,48.4,0.0,3
2026-07-11,'16:35:23.481',143.115,0.0,48.4,0.0,3
2026-07-11,'16:35:24.097',160.009,0.0,47.6,0.0,3
2026-07-11,'16:35:24.119',160.031,0.0,47.1,0.0,3
2026-07-11,'16:35:24.219',146.200,0.0,47.1,0.0,3
2026-07-11,'16:35:24.317',137.459,0.0,47.6,0.0,3
2026-07-11,'16:35:24.417',98.183,0.0,48.0,0.0,3
2026-07-11,'16:35:24.517',43.533,0.0,49.5,0.0,3
2026-07-11,'16:35:24.618',43.609,0.0,45.6,0.0,3
2026-07-11,'16:35:24.718',47.952,26.5,50.7,0.0,36
2026-07-11,'16:35:29.825',47.949,26.5,55.2,0.0,37
2026-07-11,'16:35:30.941',47.956,26.5,59.1,0.0,39
2026-07-11,'16:35:30.969',48.013,26.5,62.4,0.0,40
2026-07-11,'16:35:31.070',44.074,24.1,65.2,0.0,41
2026-07-11,'16:35:31.170',32.733,17.2,64.8,0.0,42
2026-07-11,'16:35:31.269',11.293,4.2,63.3,0.0,59
2026-07-11,'16:35:31.369',7.180,1.7,71.7,0.0,80
2026-07-11,'16:35:31.469',6.098,1.0,78.2,0.0,81
2026-07-11,'16:35:31.570',5.908,0.9,83.0,0.0,82
2026-07-11,'16:35:31.670',5.525,0.7,88.9,0.0,82
2026-07-11,'16:35:31.770',6.421,1.2,96.5,0.0,83
2026-07-11,'16:35:32.377',6.431,1.2,104.5,0.0,84
2026-07-11,'16:35:32.398',6.432,1.2,111.2,0.0,85
2026-07-11,'16:35:32.498',7.228,1.7,115.0,0.0,86
2026-07-11,'16:35:32.597',7.049,1.6,93.6,0.0,86
2026-07-11,'16:35:32.698',7.490,1.8,92.8,0.0,87
2026-07-11,'16:35:32.798',8.109,2.2,99.4,0.0,88
2026-07-11,'16:35:32.897',9.058,2.8,101.7,0.0,68
2026-07-11,'16:35:32.997',10.721,3.8,99.3,0.0,69
2026-07-11,'16:35:33.097',11.317,4.2,97.4,0.0,69
2026-07-11,'16:35:33.198',10.904,3.9,100.1,0.0,70
2026-07-11,'16:35:34.315',10.206,3.5,109.9,0.0,70
2026-07-11,'16:35:34.344',10.098,3.4,118.3,0.0,71
2026-07-11,'16:35:34.443',9.151,2.9,122.4,0.0,71
2026-07-11,'16:35:34.542',9.258,2.9,123.5,0.0,72
2026-07-11,'16:35:34.642',8.867,2.7,110.1,0.0,92
2026-07-11,'16:35:34.742',8.682,2.6,113.4,0.0,92
2026-07-11,'16:35:34.843',8.001,2.2,113.2,0.0,93
2026-07-11,'16:35:34.943',8.890,2.7,115.1,0.0,93
2026-07-11,'16:35:35.043',8.283,2.3,117.6,0.0,93
2026-07-11,'16:35:35.142',8.832,2.7,119.9,0.0,94
2026-07-11,'16:35:35.752',9.072,2.8,121.5,0.0,74
2026-07-11,'16:35:35.772',9.110,2.8,122.9,0.0,74
2026-07-11,'16:35:35.873',9.461,3.0,128.6,0.0,75
2026-07-11,'16:35:35.973',9.198,2.9,119.8,0.0,75
2026-07-11,'16:35:36.073',9.025,2.8,117.4,0.0,75
2026-07-11,'16:35:36.172',8.077,2.2,122.4,0.0,95
2026-07-11,'16:35:36.272',7.206,1.7,127.5,0.0,95
2026-07-11,'16:35:36.373',7.359,1.8,135.6,0.0,96
2026-07-11,'16:35:36.473',7.307,1.7,137.9,0.0,96
2026-07-11,'16:35:36.573',8.335,2.4,142.4,0.0,96
2026-07-11,'16:35:37.687',8.679,2.6,139.6,0.0,96
2026-07-11,'16:35:37.716',8.787,2.6,137.8,0.0,96
2026-07-11,'16:35:37.816',8.969,2.7,138.4,0.0,77
2026-07-11,'16:35:37.916',8.300,2.3,138.5,0.0,97
2026-07-11,'16:35:38.016',8.623,2.5,140.6,0.0,97
2026-07-11,'16:35:38.116',8.427,2.4,140.0,0.0,97
2026-07-11,'16:35:38.215',8.564,2.5,132.9,0.0,97
2026-07-11,'16:35:38.316',9.635,3.2,128.4,0.0,77
2026-07-11,'16:35:38.415',9.161,2.9,133.5,0.0,77
2026-07-11,'16:35:38.516',8.846,2.7,137.6,0.0,97
2026-07-11,'16:35:39.129',7.446,1.8,139.0,0.0,98
2026-07-11,'16:35:39.151',7.524,1.9,140.1,0.0,98
2026-07-11,'16:35:39.250',7.663,2.0,142.6,0.0,98
2026-07-11,'16:35:39.349',8.185,2.3,136.0,0.0,98
2026-07-11,'16:35:39.450',8.572,2.5,125.1,0.0,98
2026-07-11,'16:35:39.550',8.164,2.3,127.1,0.0,98
2026-07-11,'16:35:39.650',7.899,2.1,130.9,0.0,98
2026-07-11,'16:35:39.749',7.331,1.8,129.4,0.0,98
2026-07-11,'16:35:39.850',7.957,2.1,133.0,0.0,98
2026-07-11,'16:35:39.949',8.284,2.3,135.5,0.0,98
2026-07-11,'16:35:41.060',8.837,2.7,134.1,0.0,98
2026-07-11,'16:35:41.089',8.870,2.7,133.1,0.0,98
2026-07-11,'16:35:41.188',9.012,2.8,132.8,0.0,78
2026-07-11,'16:35:41.287',7.985,2.2,122.6,0.0,98
2026-07-11,'16:35:41.387',7.283,1.7,115.5,0.0,99
2026-07-11,'16:35:41.487',7.175,1.7,112.9,0.0,99
2026-07-11,'16:35:41.588',7.621,1.9,119.2,0.0,99
2026-07-11,'16:35:41.688',7.481,1.8,124.7,0.0,99
2026-07-11,'16:35:41.787',7.502,1.9,124.5,0.0,99
2026-07-11,'16:35:41.887',7.948,2.1,126.2,0.0,99
2026-07-11,'16:35:42.497',8.226,2.3,129.4,0.0,99
2026-07-11,'16:35:42.517',8.199,2.3,132.1,0.0,99
2026-07-11,'16:35:42.618',8.918,2.7,132.6,0.0,79
2026-07-11,'16:35:42.718',8.559,2.5,127.7,0.0,99
2026-07-11,'16:35:42.818',8.436,2.4,127.8,0.0,99
2026-07-11,'16:35:42.917',8.245,2.3,130.4,0.0,99
2026-07-11,'16:35:43.017',8.458,2.4,132.0,0.0,99
2026-07-11,'16:35:43.118',8.481,2.5,134.4,0.0,99
2026-07-11,'16:35:43.218',8.766,2.6,135.7,0.0,99
2026-07-11,'16:35:43.318',8.886,2.7,138.1,0.0,99
2026-07-11,'16:35:44.433',8.824,2.7,130.4,0.0,99
2026-07-11,'16:35:44.462',8.823,2.7,125.4,0.0,99
2026-07-11,'16:35:44.561',9.073,2.8,129.9,0.0,79
2026-07-11,'16:35:44.661',8.603,2.5,130.2,0.0,99
2026-07-11,'16:35:44.762',9.233,2.9,130.1,0.0,79
2026-07-11,'16:35:44.862',9.226,2.9,134.0,0.0,79
2026-07-11,'16:35:44.961',8.842,2.7,136.1,0.0,99
2026-07-11,'16:35:45.061',9.203,2.9,133.5,0.0,79
2026-07-11,'16:35:45.161',9.158,2.9,136.9,0.0,79
2026-07-11,'16:35:45.262',9.214,2.9,139.8,0.0,79
2026-07-11,'16:35:45.869',9.350,3.0,136.8,0.0,79
2026-07-11,'16:35:45.891',9.269,2.9,134.9,0.0,79
2026-07-11,'16:35:45.990',9.277,2.9,131.6,0.0,79
2026-07-11,'16:35:46.089',9.483,3.1,120.2,0.0,79
2026-07-11,'16:35:46.190',10.575,3.7,125.2,0.0,79
2026-07-11,'16:35:46.289',10.229,3.5,133.5,0.0,79
2026-07-11,'16:35:46.390',9.481,3.1,135.9,0.0,79
2026-07-11,'16:35:46.490',8.650,2.6,139.1,0.0,99
2026-07-11,'16:35:46.589',8.689,2.6,141.0,0.0,99
2026-07-11,'16:35:46.689',8.506,2.5,143.3,0.0,99
2026-07-11,'16:35:47.808',8.234,2.3,135.5,0.0,99
2026-07-11,'16:35:47.837',8.268,2.3,130.2,0.0,99
2026-07-11,'16:35:47.936',8.216,2.3,119.8,0.0,99
2026-07-11,'16:35:48.037',7.925,2.1,118.9,0.0,99
2026-07-11,'16:35:48.137',8.563,2.5,121.4,0.0,99
2026-07-11,'16:35:48.236',8.472,2.4,126.7,0.0,99
2026-07-11,'16:35:48.336',8.571,2.5,127.3,0.0,99
2026-07-11,'16:35:48.436',8.195,2.3,127.8,0.0,99
2026-07-11,'16:35:48.537',7.530,1.9,128.6,0.0,99
2026-07-11,'16:35:48.637',7.906,2.1,127.5,0.0,99
2026-07-11,'16:35:49.242',8.332,2.4,129.1,0.0,99
2026-07-11,'16:35:49.264',8.341,2.4,130.4,0.0,99
2026-07-11,'16:35:49.362',8.975,2.8,135.4,0.0,79
2026-07-11,'16:35:49.462',9.397,3.0,131.5,0.0,79
2026-07-11,'16:35:49.563',8.772,2.6,131.4,0.0,99
2026-07-11,'16:35:49.663',8.798,2.6,128.4,0.0,99
2026-07-11,'16:35:49.763',8.594,2.5,126.9,0.0,99
2026-07-11,'16:35:49.862',11.013,4.0,127.5,0.0,79
2026-07-11,'16:35:49.962',10.559,3.7,128.1,0.0,79
2026-07-11,'16:35:50.063',10.282,3.5,112.6,0.0,79
2026-07-11,'16:35:51.179',9.092,2.8,97.5,0.0,79
2026-07-11,'16:35:51.208',9.081,2.8,87.6,0.0,79
2026-07-11,'16:35:51.307',7.880,2.1,92.6,0.0,99
2026-07-11,'16:35:51.406',7.885,2.1,94.7,0.0,99
2026-07-11,'16:35:51.507',8.379,2.4,95.4,0.0,99
2026-07-11,'16:35:51.606',8.255,2.3,97.1,0.0,99
2026-07-11,'16:35:51.707',7.687,2.0,105.5,0.0,99
2026-07-11,'16:35:51.807',7.443,1.8,111.3,0.0,99
2026-07-11,'16:35:51.906',7.314,1.7,119.8,0.0,99
2026-07-11,'16:35:52.006',8.288,2.3,123.7,0.0,99
2026-07-11,'16:36:08.503',29.962,15.5,54.8,0.0,36
2026-07-11,'16:36:08.602',20.917,10.0,54.6,0.0,52
2026-07-11,'16:36:08.702',15.726,6.9,54.0,0.0,54
2026-07-11,'16:36:08.802',11.631,4.4,77.2,0.0,55
2026-07-11,'16:36:08.903',9.774,3.2,97.4,0.0,56
2026-07-11,'16:36:09.003',10.198,3.5,107.6,0.0,57
2026-07-11,'16:36:09.102',10.058,3.4,113.6,0.0,59
2026-07-11,'16:36:09.202',10.126,3.5,118.7,0.0,60
2026-07-11,'16:36:09.302',9.022,2.8,127.0,0.0,61
2026-07-11,'16:36:09.403',9.098,2.8,131.8,0.0,62
2026-07-11,'16:36:10.030',8.827,2.7,127.1,0.0,82
2026-07-11,'16:36:10.052',8.785,2.6,123.9,0.0,83
2026-07-11,'16:36:10.150',10.202,3.5,123.0,0.0,64
2026-07-11,'16:36:10.251',10.369,3.6,109.6,0.0,65
2026-07-11,'16:36:10.350',10.315,3.6,113.5,0.0,66
2026-07-11,'16:36:10.451',10.086,3.4,117.9,0.0,66
2026-07-11,'16:36:10.551',9.709,3.2,118.5,0.0,67
2026-07-11,'16:36:11.151',9.588,3.1,122.6,0.0,68
2026-07-11,'16:36:11.172',9.587,3.1,126.1,0.0,68
2026-07-11,'16:36:11.272',10.222,3.5,127.8,0.0,69
2026-07-11,'16:36:11.871',10.941,3.9,128.1,0.0,69
2026-07-11,'16:36:11.891',10.945,4.0,128.3,0.0,70
2026-07-11,'16:36:11.992',11.267,4.1,131.1,0.0,70
2026-07-11,'16:36:12.092',10.560,3.7,124.2,0.0,71
2026-07-11,'16:36:12.191',9.753,3.2,113.8,0.0,71
2026-07-11,'16:36:12.291',9.512,3.1,116.5,0.0,72
2026-07-11,'16:36:12.391',9.762,3.2,118.2,0.0,72
2026-07-11,'16:36:12.492',10.049,3.4,121.4,0.0,72
2026-07-11,'16:36:12.592',9.603,3.1,119.6,0.0,73
2026-07-11,'16:36:12.691',9.698,3.2,123.5,0.0,73
2026-07-11,'16:36:13.302',9.377,3.0,124.7,0.0,73
2026-07-11,'16:36:13.323',9.406,3.0,125.6,0.0,74
2026-07-11,'16:36:13.423',9.669,3.2,125.1,0.0,74
2026-07-11,'16:36:13.524',10.018,3.4,122.4,0.0,74
2026-07-11,'16:36:13.623',9.710,3.2,126.2,0.0,75
2026-07-11,'16:36:14.216',9.529,3.1,130.7,0.0,75
2026-07-11,'16:36:14.238',9.530,3.1,134.6,0.0,75
2026-07-11,'16:36:14.336',8.736,2.6,137.9,0.0,95
2026-07-11,'16:36:14.437',8.797,2.6,131.6,0.0,95
2026-07-11,'16:36:14.536',8.599,2.5,119.5,0.0,96
2026-07-11,'16:36:15.142',9.123,2.8,111.3,0.0,76
2026-07-11,'16:36:15.163',8.992,2.8,106.0,0.0,76
2026-07-11,'16:36:15.263',9.352,3.0,110.0,0.0,76
2026-07-11,'16:36:15.362',9.147,2.9,110.0,0.0,76
2026-07-11,'16:36:15.462',8.724,2.6,110.0,0.0,97
2026-07-11,'16:36:15.562',8.120,2.2,109.0,0.0,97
2026-07-11,'16:36:15.663',7.930,2.1,110.5,0.0,97
2026-07-11,'16:36:15.763',8.162,2.3,114.0,0.0,97
2026-07-11,'16:36:15.863',8.507,2.5,119.0,0.0,97
2026-07-11,'16:36:15.962',8.145,2.2,123.7,0.0,97
2026-07-11,'16:36:16.674',8.137,2.2,125.8,0.0,97
2026-07-11,'16:36:16.694',8.145,2.2,127.6,0.0,97
2026-07-11,'16:36:17.283',8.501,2.5,124.3,0.0,98
2026-07-11,'16:36:17.304',8.523,2.5,122.1,0.0,98
2026-07-11,'16:36:17.404',8.786,2.6,98.1,0.0,98
2026-07-11,'16:36:17.503',9.232,2.9,100.0,0.0,78
2026-07-11,'16:36:17.603',9.088,2.8,101.6,0.0,78
2026-07-11,'16:36:17.703',9.571,3.1,106.9,0.0,78
2026-07-11,'16:36:17.804',9.536,3.1,111.9,0.0,78
2026-07-11,'16:36:17.904',9.440,3.0,115.7,0.0,78
2026-07-11,'16:36:18.624',10.513,3.7,117.1,0.0,78
2026-07-11,'16:36:18.645',10.513,3.7,118.3,0.0,78
2026-07-11,'16:36:18.745',10.631,3.8,120.3,0.0,78
2026-07-11,'16:36:18.845',10.784,3.9,120.6,0.0,78
2026-07-11,'16:36:18.945',9.639,3.2,118.6,0.0,78
2026-07-11,'16:36:19.045',8.614,2.5,118.7,0.0,98
2026-07-11,'16:36:19.144',8.032,2.2,120.4,0.0,99
2026-07-11,'16:36:19.244',8.401,2.4,122.3,0.0,99
2026-07-11,'16:36:19.345',8.534,2.5,127.0,0.0,99
2026-07-11,'16:36:19.445',8.860,2.7,128.3,0.0,99
2026-07-11,'16:36:20.553',9.217,2.9,128.7,0.0,79
2026-07-11,'16:36:20.575',9.307,3.0,129.1,0.0,79
2026-07-11,'16:36:20.673',10.034,3.4,128.5,0.0,79
2026-07-11,'16:36:20.774',10.777,3.8,118.4,0.0,79
2026-07-11,'16:36:20.873',10.486,3.7,115.7,0.0,79
2026-07-11,'16:36:20.974',9.558,3.1,117.2,0.0,79
2026-07-11,'16:36:21.074',8.732,2.6,123.7,0.0,99
2026-07-11,'16:36:21.173',8.337,2.4,124.5,0.0,99
2026-07-11,'16:36:21.273',7.989,2.2,125.6,0.0,99
2026-07-11,'16:36:21.373',7.597,1.9,125.7,0.0,99
2026-07-11,'16:36:21.990',7.776,2.0,126.2,0.0,99
2026-07-11,'16:36:22.011',7.784,2.0,126.6,0.0,99
2026-07-11,'16:36:22.111',8.449,2.4,116.4,0.0,99
2026-07-11,'16:36:22.211',8.773,2.6,116.1,0.0,99
2026-07-11,'16:36:22.310',9.111,2.8,116.3,0.0,79
2026-07-11,'16:36:22.410',8.970,2.7,118.7,0.0,79
2026-07-11,'16:36:22.511',8.477,2.4,122.5,0.0,99
2026-07-11,'16:36:22.611',8.323,2.4,125.3,0.0,99
2026-07-11,'16:36:22.711',7.988,2.2,126.1,0.0,99
2026-07-11,'16:36:22.810',7.245,1.7,130.9,0.0,99
2026-07-11,'16:36:23.926',7.291,1.7,134.3,0.0,99
2026-07-11,'16:36:23.947',7.326,1.7,137.1,0.0,99
2026-07-11,'16:36:24.046',7.766,2.0,131.1,0.0,99
2026-07-11,'16:36:24.147',8.160,2.3,125.7,0.0,99
2026-07-11,'16:36:24.247',7.897,2.1,125.9,0.0,99
2026-07-11,'16:36:24.346',7.571,1.9,126.5,0.0,99
2026-07-11,'16:36:24.447',7.647,1.9,128.3,0.0,99
2026-07-11,'16:36:24.546',7.906,2.1,126.8,0.0,99
2026-07-11,'16:36:24.647',8.419,2.4,123.5,0.0,99
2026-07-11,'16:36:24.747',8.275,2.3,125.6,0.0,99
2026-07-11,'16:36:25.363',8.721,2.6,122.2,0.0,99
2026-07-11,'16:36:25.384',8.886,2.7,119.8,0.0,99
2026-07-11,'16:36:25.484',9.061,2.8,115.9,0.0,79
2026-07-11,'16:36:25.583',9.161,2.9,115.3,0.0,79
2026-07-11,'16:36:25.684',8.900,2.7,117.0,0.0,99
2026-07-11,'16:36:25.784',8.272,2.3,113.0,0.0,99
2026-07-11,'16:36:25.883',8.565,2.5,117.4,0.0,99
2026-07-11,'16:36:25.984',9.107,2.8,117.5,0.0,79
2026-07-11,'16:36:26.084',9.044,2.8,115.0,0.0,79
2026-07-11,'16:36:26.184',8.949,2.7,115.0,0.0,79
2026-07-11,'16:36:27.299',8.487,2.5,118.3,0.0,99
2026-07-11,'16:36:27.321',8.489,2.5,121.1,0.0,99
2026-07-11,'16:36:27.419',8.844,2.7,121.4,0.0,99
2026-07-11,'16:36:27.519',8.921,2.7,121.4,0.0,79
2026-07-11,'16:36:27.620',8.958,2.7,121.6,0.0,79
2026-07-11,'16:36:27.720',8.529,2.5,123.5,0.0,99
2026-07-11,'16:36:27.820',8.208,2.3,125.5,0.0,99
2026-07-11,'16:36:27.919',8.611,2.5,127.2,0.0,99
2026-07-11,'16:36:28.020',8.519,2.5,129.9,0.0,99
2026-07-11,'16:36:28.119',8.188,2.3,131.2,0.0,99
2026-07-11,'16:36:28.736',8.568,2.5,128.9,0.0,99
2026-07-11,'16:36:28.757',8.579,2.5,127.3,0.0,99
2026-07-11,'16:36:28.857',8.777,2.6,109.3,0.0,99
2026-07-11,'16:36:28.956',8.449,2.4,100.9,0.0,99
2026-07-11,'16:36:29.057',8.011,2.2,106.9,0.0,99
2026-07-11,'16:36:29.157',7.974,2.1,114.7,0.0,99
2026-07-11,'16:36:29.257',8.576,2.5,119.8,0.0,99
2026-07-11,'16:36:29.357',8.546,2.5,126.0,0.0,99
2026-07-11,'16:36:29.456',7.955,2.1,127.2,0.0,99
2026-07-11,'16:36:29.557',7.719,2.0,131.4,0.0,99
2026-07-11,'16:36:30.774',8.069,2.2,133.4,0.0,99
2026-07-11,'16:36:30.795',8.204,2.3,135.1,0.0,99
2026-07-11,'16:36:30.895',8.310,2.3,134.3,0.0,99
2026-07-11,'16:36:30.994',7.908,2.1,123.1,0.0,99
2026-07-11,'16:36:31.095',8.300,2.3,117.8,0.0,99
2026-07-11,'16:36:31.194',8.432,2.4,113.2,0.0,99
2026-07-11,'16:36:31.295',9.346,3.0,116.4,0.0,79
2026-07-11,'16:36:31.395',8.942,2.7,120.0,0.0,79
2026-07-11,'16:36:31.494',9.204,2.9,121.7,0.0,79
2026-07-11,'16:36:31.594',9.120,2.8,119.9,0.0,79
2026-07-11,'16:36:32.210',9.128,2.8,118.4,0.0,79
2026-07-11,'16:36:32.231',9.109,2.8,117.4,0.0,79
2026-07-11,'16:36:32.331',9.351,3.0,115.3,0.0,79
2026-07-11,'16:36:32.431',9.934,3.3,117.9,0.0,79
2026-07-11,'16:36:32.531',10.487,3.7,121.5,0.0,79
2026-07-11,'16:36:32.630',10.277,3.5,123.5,0.0,79
2026-07-11,'16:36:32.731',9.436,3.0,127.1,0.0,79
2026-07-11,'16:36:32.830',7.787,2.0,126.7,0.0,99
2026-07-11,'16:36:32.931',7.566,1.9,128.4,0.0,99
2026-07-11,'16:36:33.031',7.633,1.9,129.2,0.0,99
2026-07-11,'16:36:34.147',7.950,2.1,134.1,0.0,99
2026-07-11,'16:36:34.169',7.952,2.1,138.2,0.0,99
2026-07-11,'16:36:34.267',7.707,2.0,141.2,0.0,99
2026-07-11,'16:36:34.367',7.433,1.8,137.3,0.0,99
2026-07-11,'16:36:34.468',7.325,1.7,138.8,0.0,99
2026-07-11,'16:36:34.568',8.524,2.5,139.0,0.0,99
2026-07-11,'16:36:34.667',8.366,2.4,138.2,0.0,99
2026-07-11,'16:36:34.767',8.253,2.3,137.8,0.0,99
2026-07-11,'16:36:34.867',7.630,1.9,134.2,0.0,99
2026-07-11,'16:36:34.968',7.954,2.1,124.8,0.0,99
2026-07-11,'16:36:35.583',8.866,2.7,118.2,0.0,99
2026-07-11,'16:36:35.605',8.853,2.7,113.7,0.0,99
2026-07-11,'16:36:35.703',9.569,3.1,92.2,0.0,79
2026-07-11,'16:36:35.803',9.688,3.2,95.9,0.0,79
2026-07-11,'16:36:35.903',8.666,2.6,101.6,0.0,99
2026-07-11,'16:36:36.004',8.255,2.3,107.8,0.0,99
2026-07-11,'16:36:36.104',7.205,1.7,114.0,0.0,99
2026-07-11,'16:36:36.203',8.144,2.2,118.8,0.0,99
2026-07-11,'16:36:36.303',8.805,2.6,120.7,0.0,99
2026-07-11,'16:36:36.403',8.400,2.4,123.0,0.0,99
2026-07-11,'16:36:37.519',8.701,2.6,125.5,0.0,99
2026-07-11,'16:36:37.540',8.942,2.7,127.6,0.0,79
2026-07-11,'16:36:37.640',8.464,2.4,128.8,0.0,99
2026-07-11,'16:36:37.739',8.963,2.7,127.0,0.0,79
2026-07-11,'16:36:37.840',8.798,2.6,128.4,0.0,99
2026-07-11,'16:36:37.939',9.269,2.9,124.4,0.0,79
2026-07-11,'16:36:38.040',9.076,2.8,125.0,0.0,79
2026-07-11,'16:36:38.140',9.447,3.0,123.4,0.0,79
2026-07-11,'16:36:38.239',8.380,2.4,122.8,0.0,99
2026-07-11,'16:36:38.339',7.730,2.0,124.1,0.0,99
2026-07-11,'16:36:39.071',8.028,2.2,126.8,0.0,99
2026-07-11,'16:36:39.092',8.013,2.2,129.0,0.0,99
2026-07-11,'16:36:39.192',9.139,2.9,111.4,0.0,79
2026-07-11,'16:36:39.291',9.416,3.0,104.7,0.0,79
2026-07-11,'16:36:39.392',9.163,2.9,104.2,0.0,79
2026-07-11,'16:36:39.492',8.800,2.6,112.5,0.0,99
2026-07-11,'16:36:39.592',9.125,2.8,116.4,0.0,79
2026-07-11,'16:36:39.692',9.466,3.1,118.9,0.0,79
2026-07-11,'16:36:39.791',9.479,3.1,123.6,0.0,79
2026-07-11,'16:36:39.891',9.665,3.2,127.0,0.0,79
2026-07-11,'16:36:41.098',9.154,2.9,130.3,0.0,79
2026-07-11,'16:36:41.119',9.208,2.9,133.0,0.0,79
2026-07-11,'16:36:41.219',9.597,3.1,127.5,0.0,79
2026-07-11,'16:36:41.319',10.103,3.4,108.3,0.0,79
2026-07-11,'16:36:41.418',10.208,3.5,102.6,0.0,79
2026-07-11,'16:36:41.518',8.406,2.4,96.3,0.0,99
2026-07-11,'16:36:41.618',6.796,1.4,100.5,0.0,99
2026-07-11,'16:36:41.719',7.537,1.9,102.8,0.0,99
2026-07-11,'16:36:41.819',7.985,2.2,109.5,0.0,99
2026-07-11,'16:36:41.918',8.185,2.3,112.2,0.0,99
2026-07-11,'16:36:42.534',9.074,2.8,109.7,0.0,79
2026-07-11,'16:36:42.555',9.085,2.8,108.1,0.0,79
2026-07-11,'16:36:42.655',9.333,3.0,94.7,0.0,79
2026-07-11,'16:36:42.756',9.567,3.1,97.2,0.0,79
2026-07-11,'16:36:42.855',8.847,2.7,100.2,0.0,99
2026-07-11,'16:36:42.954',7.818,2.0,104.1,0.0,99
2026-07-11,'16:36:43.055',7.951,2.1,110.4,0.0,99
2026-07-11,'16:36:43.154',8.112,2.2,118.7,0.0,99
2026-07-11,'16:36:43.255',8.118,2.2,122.7,0.0,99
2026-07-11,'16:36:43.355',7.888,2.1,128.1,0.0,99
2026-07-11,'16:36:44.470',7.398,1.8,131.4,0.0,99
2026-07-11,'16:36:44.491',7.396,1.8,134.1,0.0,99
2026-07-11,'16:36:44.591',8.032,2.2,125.1,0.0,99
2026-07-11,'16:36:44.690',7.949,2.1,122.0,0.0,99
2026-07-11,'16:36:44.791',8.201,2.3,117.1,0.0,99
2026-07-11,'16:36:44.891',7.238,1.7,117.4,0.0,99
2026-07-11,'16:36:44.990',6.835,1.5,119.3,0.0,99
2026-07-11,'16:36:45.090',7.253,1.7,122.1,0.0,99
2026-07-11,'16:36:45.190',7.177,1.7,124.5,0.0,99
2026-07-11,'16:36:45.291',7.790,2.0,123.6,0.0,99
2026-07-11,'16:36:45.906',8.795,2.6,112.8,0.0,99
2026-07-11,'16:36:45.928',8.801,2.6,105.1,0.0,99
2026-07-11,'16:36:46.026',8.814,2.7,92.6,0.0,99
2026-07-11,'16:36:46.126',8.707,2.6,95.6,0.0,99
2026-07-11,'16:36:46.226',7.565,1.9,103.0,0.0,99
2026-07-11,'16:36:46.327',7.326,1.7,108.1,0.0,99
2026-07-11,'16:36:46.427',7.688,2.0,117.7,0.0,99
2026-07-11,'16:36:46.527',7.962,2.1,118.0,0.0,99
2026-07-11,'16:36:46.626',7.491,1.9,118.7,0.0,99
2026-07-11,'16:36:46.727',7.275,1.7,118.4,0.0,99
2026-07-11,'16:36:47.843',7.197,1.7,118.8,0.0,99
2026-07-11,'16:36:47.864',7.214,1.7,119.1,0.0,99
2026-07-11,'16:36:47.964',7.992,2.2,116.2,0.0,99
2026-07-11,'16:36:48.064',7.644,1.9,108.5,0.0,99
2026-07-11,'16:36:48.164',8.002,2.2,110.8,0.0,99
2026-07-11,'16:36:48.263',7.779,2.0,114.1,0.0,99
2026-07-11,'16:36:48.364',7.665,2.0,116.4,0.0,99
2026-07-11,'16:36:48.463',6.835,1.5,114.4,0.0,99
2026-07-11,'16:36:48.564',7.331,1.8,117.6,0.0,99
2026-07-11,'16:36:48.664',7.364,1.8,120.2,0.0,99
2026-07-11,'16:36:49.279',8.291,2.3,116.6,0.0,99
2026-07-11,'16:36:49.300',8.287,2.3,114.2,0.0,99
2026-07-11,'16:36:49.399',8.191,2.3,92.0,0.0,99
2026-07-11,'16:36:49.499',8.090,2.2,77.2,0.0,99
2026-07-11,'16:36:49.600',7.213,1.7,84.8,0.0,99
2026-07-11,'16:36:49.700',6.449,1.2,90.2,0.0,99
2026-07-11,'16:36:49.800',6.805,1.4,93.7,0.0,99
2026-07-11,'16:36:49.899',7.263,1.7,99.8,0.0,99
2026-07-11,'16:36:49.999',7.777,2.0,104.8,0.0,99
2026-07-11,'16:36:50.099',7.109,1.6,109.7,0.0,99
2026-07-11,'16:36:51.222',7.943,2.1,111.6,0.0,99
2026-07-11,'16:36:51.243',7.982,2.1,113.2,0.0,99
2026-07-11,'16:36:51.343',8.114,2.2,114.0,0.0,99
2026-07-11,'16:36:51.443',8.143,2.2,110.1,0.0,99
2026-07-11,'16:36:51.542',7.438,1.8,108.9,0.0,99
2026-07-11,'16:36:51.642',7.474,1.8,113.5,0.0,99
2026-07-11,'16:36:51.743',7.480,1.8,118.8,0.0,99
2026-07-11,'16:36:51.843',8.170,2.3,121.3,0.0,99
2026-07-11,'16:36:51.943',8.521,2.5,122.9,0.0,99
2026-07-11,'16:36:52.042',8.577,2.5,123.1,0.0,99
2026-07-11,'16:36:52.855',8.728,2.6,121.6,0.0,99
2026-07-11,'16:36:52.877',8.725,2.6,120.6,0.0,99
2026-07-11,'16:36:52.976',8.674,2.6,97.6,0.0,99
2026-07-11,'16:36:53.075',8.284,2.3,99.8,0.0,99
2026-07-11,'16:36:53.175',7.253,1.7,105.0,0.0,99
2026-07-11,'16:36:53.275',7.632,1.9,113.3,0.0,99
2026-07-11,'16:36:53.376',8.108,2.2,118.1,0.0,99
2026-07-11,'16:36:53.476',8.181,2.3,120.5,0.0,99
2026-07-11,'16:36:53.576',8.076,2.2,123.4,0.0,99
2026-07-11,'16:36:53.675',8.787,2.6,127.0,0.0,99
2026-07-11,'16:36:54.797',8.825,2.7,128.5,0.0,99
2026-07-11,'16:36:54.818',8.857,2.7,129.8,0.0,99
2026-07-11,'16:36:54.917',8.780,2.6,132.1,0.0,99
2026-07-11,'16:36:55.018',8.030,2.2,126.5,0.0,99
2026-07-11,'16:36:55.118',7.460,1.8,115.8,0.0,99
2026-07-11,'16:36:55.217',7.554,1.9,114.5,0.0,99
2026-07-11,'16:36:55.317',7.600,1.9,118.6,0.0,99
2026-07-11,'16:36:55.417',7.646,1.9,122.0,0.0,99
2026-07-11,'16:36:55.518',8.048,2.2,117.9,0.0,99
2026-07-11,'16:36:55.618',8.670,2.6,118.4,0.0,99
2026-07-11,'16:36:56.233',10.475,3.7,119.1,0.0,79
2026-07-11,'16:36:56.255',10.462,3.7,119.6,0.0,79
2026-07-11,'16:36:56.353',10.730,3.8,95.9,0.0,79
2026-07-11,'16:36:56.454',10.398,3.6,88.5,0.0,79
2026-07-11,'16:36:56.554',9.168,2.9,86.5,0.0,79
2026-07-11,'16:36:56.654',7.943,2.1,91.6,0.0,99
2026-07-11,'16:36:56.754',8.166,2.3,100.0,0.0,99
2026-07-11,'16:36:56.853',7.491,1.9,106.2,0.0,99
2026-07-11,'16:36:56.954',7.362,1.8,110.1,0.0,99
2026-07-11,'16:36:57.053',7.264,1.7,112.5,0.0,99
2026-07-11,'16:36:58.170',7.548,1.9,114.9,0.0,99
2026-07-11,'16:36:58.191',7.584,1.9,117.0,0.0,99
2026-07-11,'16:36:58.291',8.075,2.2,114.3,0.0,99
2026-07-11,'16:36:58.391',8.184,2.3,114.4,0.0,99
2026-07-11,'16:36:58.490',8.193,2.3,115.9,0.0,99
2026-07-11,'16:36:58.590',7.849,2.1,118.3,0.0,99
2026-07-11,'16:36:58.691',7.782,2.0,118.7,0.0,99
2026-07-11,'16:36:58.791',7.724,2.0,115.9,0.0,99
2026-07-11,'16:36:58.891',7.484,1.8,122.7,0.0,99
2026-07-11,'16:36:58.990',7.565,1.9,124.6,0.0,99
2026-07-11,'16:36:59.913',9.317,3.0,120.8,0.0,79
2026-07-11,'16:36:59.935',9.339,3.0,118.3,0.0,79
2026-07-11,'16:37:00.033',10.242,3.5,95.0,0.0,79
2026-07-11,'16:37:02.472',10.307,3.6,79.9,0.0,79
2026-07-11,'16:37:03.795',10.230,3.5,70.0,0.0,79
2026-07-11,'16:37:03.816',10.236,3.5,63.6,0.0,79
2026-07-11,'16:37:03.916',11.147,4.1,59.5,0.0,79
2026-07-11,'16:37:04.015',10.619,3.8,56.4,0.0,79
2026-07-11,'16:37:04.116',9.309,3.0,62.0,0.0,79
2026-07-11,'16:37:04.216',8.960,2.7,70.9,0.0,79
2026-07-11,'16:37:04.315',8.350,2.4,75.7,0.0,99
2026-07-11,'16:37:04.415',8.325,2.4,82.0,0.0,99
2026-07-11,'16:37:04.515',8.116,2.2,87.4,0.0,99
2026-07-11,'16:37:04.616',7.888,2.1,91.9,0.0,99
2026-07-11,'16:37:05.734',8.018,2.2,94.8,0.0,99
2026-07-11,'16:37:05.755',8.020,2.2,97.3,0.0,99
2026-07-11,'16:37:05.855',7.907,2.1,99.7,0.0,99
2026-07-11,'16:37:05.954',8.460,2.4,99.9,0.0,99
2026-07-11,'16:37:06.055',8.513,2.5,99.7,0.0,99
2026-07-11,'16:37:06.154',7.554,1.9,102.0,0.0,99
2026-07-11,'16:37:06.255',9.454,3.0,105.4,0.0,79
2026-07-11,'16:37:06.355',10.230,3.5,87.4,0.0,79
2026-07-11,'16:37:06.454',10.866,3.9,74.5,0.0,79
2026-07-11,'16:37:06.554',9.454,3.0,75.4,0.0,79
2026-07-11,'16:37:07.282',8.527,2.5,72.7,0.0,99
2026-07-11,'16:37:07.303',8.590,2.5,71.1,0.0,99
2026-07-11,'16:37:07.403',10.740,3.8,73.9,0.0,79
2026-07-11,'16:37:07.502',11.286,4.2,66.4,0.0,79
2026-07-11,'16:37:07.602',11.603,4.4,60.4,0.0,79
2026-07-11,'16:37:07.703',9.479,3.1,64.5,0.0,79
2026-07-11,'16:37:07.803',8.511,2.5,72.4,0.0,99
2026-07-11,'16:37:07.903',8.094,2.2,82.0,0.0,99
2026-07-11,'16:37:08.003',8.548,2.5,89.7,0.0,99
2026-07-11,'16:37:08.102',8.247,2.3,93.9,0.0,99
2026-07-11,'16:37:09.311',8.308,2.3,97.4,0.0,99
2026-07-11,'16:37:09.331',8.381,2.4,100.4,0.0,99
2026-07-11,'16:37:09.432',12.222,4.7,93.2,0.0,79
2026-07-11,'16:37:09.532',13.249,5.4,78.1,0.0,79
2026-07-11,'16:37:09.631',13.725,5.6,68.3,0.0,79
2026-07-11,'16:37:09.731',11.689,4.4,72.4,0.0,79
2026-07-11,'16:37:09.831',11.319,4.2,76.0,0.0,79
2026-07-11,'16:37:09.932',11.023,4.0,67.4,0.0,79
2026-07-11,'16:37:10.032',10.979,4.0,72.0,0.0,79
2026-07-11,'16:37:10.132',10.398,3.6,81.3,0.0,79
2026-07-11,'16:37:10.753',10.069,3.4,85.9,0.0,79
2026-07-11,'16:37:10.774',10.069,3.4,89.8,0.0,79
2026-07-11,'16:37:10.873',10.832,3.9,85.9,0.0,79
2026-07-11,'16:37:10.973',10.012,3.4,86.3,0.0,79
2026-07-11,'16:37:11.074',10.499,3.7,88.1,0.0,79
2026-07-11,'16:37:11.174',8.974,2.8,93.7,0.0,79
2026-07-11,'16:37:11.273',9.285,2.9,102.4,0.0,79
2026-07-11,'16:37:11.373',8.979,2.8,106.9,0.0,79
2026-07-11,'16:37:11.473',8.992,2.8,113.8,0.0,79
2026-07-11,'16:37:11.574',9.242,2.9,118.8,0.0,79
2026-07-11,'16:37:14.529',9.218,2.9,135.8,0.0,79
2026-07-11,'16:37:14.558',9.319,3.0,135.8,0.0,79
2026-07-11,'16:37:14.659',12.601,5.0,110.4,0.0,79
2026-07-11,'16:37:15.853',13.991,5.8,89.0,0.0,79
2026-07-11,'16:37:15.875',14.013,5.8,75.1,0.0,79
2026-07-11,'16:37:15.973',14.538,6.1,66.2,0.0,79
2026-07-11,'16:37:16.073',12.905,5.1,81.5,0.0,79
2026-07-11,'16:37:16.174',10.740,3.8,91.6,0.0,79
2026-07-11,'16:37:16.274',10.545,3.7,100.3,0.0,79
2026-07-11,'16:37:16.373',9.827,3.3,105.0,0.0,79
2026-07-11,'16:37:16.473',8.845,2.7,112.1,0.0,99
2026-07-11,'16:37:16.573',12.496,4.9,99.1,0.0,79
2026-07-11,'16:37:16.674',13.706,5.6,81.2,0.0,79
2026-07-11,'16:37:17.287',14.057,5.8,69.9,0.0,79
2026-07-11,'16:37:17.309',14.080,5.9,62.6,0.0,79
2026-07-11,'16:37:17.408',12.377,4.8,66.8,0.0,79
2026-07-11,'16:37:17.507',10.294,3.6,63.7,0.0,79
2026-07-11,'16:37:17.607',10.361,3.6,62.3,0.0,79
2026-07-11,'16:37:17.708',9.852,3.3,66.0,0.0,79
2026-07-11,'16:37:17.808',9.802,3.3,67.0,0.0,79
2026-07-11,'16:37:17.908',8.910,2.7,68.5,0.0,79
2026-07-11,'16:37:18.007',11.285,4.2,76.4,0.0,79
2026-07-11,'16:37:18.107',12.754,5.1,66.8,0.0,79
2026-07-11,'16:37:19.226',13.590,5.6,60.6,0.0,79
2026-07-11,'16:37:19.246',13.574,5.6,56.7,0.0,79
2026-07-11,'16:37:19.347',11.860,4.5,60.7,0.0,79
2026-07-11,'16:37:19.447',10.399,3.6,66.9,0.0,79
2026-07-11,'16:37:19.546',9.354,3.0,73.3,0.0,79
2026-07-11,'16:37:19.647',8.740,2.6,80.3,0.0,99
2026-07-11,'16:37:19.746',8.342,2.4,91.1,0.0,99
2026-07-11,'16:37:19.847',8.548,2.5,99.7,0.0,99
2026-07-11,'16:37:19.947',11.823,4.5,100.1,0.0,79
2026-07-11,'16:37:20.046',14.094,5.9,82.3,0.0,79
2026-07-11,'16:37:20.660',14.975,6.4,70.7,0.0,79
2026-07-11,'16:37:20.681',15.035,6.4,63.2,0.0,79
2026-07-11,'16:37:20.780',14.738,6.3,60.2,0.0,79
2026-07-11,'16:37:20.881',13.225,5.3,56.3,0.0,79
2026-07-11,'16:37:20.981',12.632,5.0,54.1,0.0,79
2026-07-11,'16:37:21.081',11.197,4.1,64.7,0.0,79
2026-07-11,'16:37:21.180',10.235,3.5,79.5,0.0,79
2026-07-11,'16:37:21.281',9.537,3.1,84.7,0.0,79
2026-07-11,'16:37:21.380',11.777,4.5,87.6,0.0,79
2026-07-11,'16:37:21.481',12.066,4.6,74.1,0.0,79
2026-07-11,'16:37:22.599',12.335,4.8,65.8,0.0,79
2026-07-11,'16:37:22.621',12.275,4.8,60.5,0.0,79
2026-07-11,'16:37:24.644',10.524,3.7,62.3,0.0,79
2026-07-11,'16:37:26.078',10.403,0.0,72.1,0.0,99
2026-07-11,'16:37:26.099',10.352,0.0,72.1,0.0,99
2026-07-11,'16:37:26.200',10.418,0.0,71.7,0.0,99
2026-07-11,'16:37:26.299',11.026,0.0,64.7,0.0,99
2026-07-11,'16:37:26.398',12.167,0.3,60.1,0.0,99
2026-07-11,'16:37:26.498',11.442,0.0,75.4,0.0,99
2026-07-11,'16:37:26.598',10.945,0.0,89.5,0.0,99
2026-07-11,'16:37:26.699',9.563,0.0,96.0,0.0,99
2026-07-11,'16:37:26.799',10.205,0.0,100.4,0.0,99
2026-07-11,'16:37:26.898',9.654,0.0,102.0,0.0,99
2026-07-11,'16:37:27.708',8.839,0.0,105.4,0.0,99
2026-07-11,'16:37:27.730',8.938,0.0,108.3,0.0,99
2026-07-11,'16:37:27.829',13.947,1.4,100.5,0.0,99
2026-07-11,'16:37:27.928',15.138,2.2,82.4,0.0,99
2026-07-11,'16:37:28.028',15.772,2.6,70.8,0.0,99
2026-07-11,'16:37:28.128',13.615,1.2,65.5,0.0,99
2026-07-11,'16:37:28.229',12.076,0.3,60.7,0.0,99
2026-07-11,'16:37:28.329',11.872,0.1,57.2,0.0,99
2026-07-11,'16:37:28.936',10.748,0.0,64.0,0.0,99
2026-07-11,'16:37:28.958',10.383,0.0,69.8,0.0,99
2026-07-11,'16:37:29.753',13.558,1.2,74.2,0.0,99
2026-07-11,'16:37:29.773',13.546,1.2,76.7,0.0,99
2026-07-11,'16:37:29.874',14.057,1.5,66.9,0.0,99
2026-07-11,'16:37:29.974',14.311,1.7,60.3,0.0,99
2026-07-11,'16:37:30.073',12.041,0.2,57.6,0.0,99
2026-07-11,'16:37:30.173',10.673,0.0,63.5,0.0,99
2026-07-11,'16:37:30.273',9.905,0.0,74.6,0.0,99
2026-07-11,'16:37:30.374',9.902,0.0,82.6,0.0,99
2026-07-11,'16:37:30.474',9.357,0.0,88.1,0.0,99
2026-07-11,'16:37:30.574',9.279,0.0,95.6,0.0,99
2026-07-11,'16:37:31.188',8.531,0.0,100.1,0.0,99
2026-07-11,'16:37:31.209',8.533,0.0,103.5,0.0,99
2026-07-11,'16:37:31.309',11.417,0.0,105.9,0.0,99
2026-07-11,'16:37:31.409',12.352,0.4,86.5,0.0,99
2026-07-11,'16:37:32.218',12.406,0.5,73.7,0.0,99
2026-07-11,'16:37:32.247',12.415,0.5,65.3,0.0,99
2026-07-11,'16:37:32.347',10.828,0.0,72.5,0.0,99
2026-07-11,'16:37:32.446',10.089,0.0,76.0,0.0,99
2026-07-11,'16:37:32.547',10.445,0.0,80.9,0.0,99
2026-07-11,'16:37:32.647',9.987,0.0,88.9,0.0,99
2026-07-11,'16:37:33.333',10.139,0.0,96.3,0.0,99
2026-07-11,'16:37:33.355',10.472,0.0,102.7,0.0,99
2026-07-11,'16:37:33.454',13.647,1.3,100.5,0.0,99
2026-07-11,'16:37:33.553',14.781,2.0,82.6,0.0,99
2026-07-11,'16:37:33.654',14.651,1.9,71.1,0.0,99
2026-07-11,'16:37:33.754',11.865,0.1,73.1,0.0,99
2026-07-11,'16:37:33.853',9.774,0.0,78.6,0.0,99
2026-07-11,'16:37:33.954',9.531,0.0,89.3,0.0,99
2026-07-11,'16:37:34.053',9.591,0.0,97.7,0.0,99
2026-07-11,'16:37:34.154',10.144,0.0,99.3,0.0,99
2026-07-11,'16:37:35.991',10.030,0.0,104.1,0.0,99
2026-07-11,'16:37:36.021',24.791,8.3,108.2,0.0,79
2026-07-11,'16:37:36.120',53.126,26.4,110.7,3.3,79
2026-07-11,'16:37:36.221',243.531,100.0,92.7,7.4,99
2026-07-11,'16:37:36.321',458.262,0.0,77.8,7.4,3
2026-07-11,'16:37:36.421',527.709,0.0,67.8,7.4,3
2026-07-11,'16:37:36.520',515.351,0.0,60.5,7.4,3
2026-07-11,'16:37:36.620',376.583,0.0,56.7,7.4,3
2026-07-11,'16:37:36.721',240.069,0.0,54.1,7.4,3
2026-07-11,'16:37:36.821',228.677,0.0,52.2,7.4,3
2026-07-11,'16:37:37.423',217.094,0.0,51.6,7.4,3
2026-07-11,'16:37:37.453',225.027,0.0,51.2,7.4,3
2026-07-11,'16:37:37.553',416.226,0.0,51.4,7.4,3
2026-07-11,'16:37:37.652',464.151,0.0,50.4,7.4,3
2026-07-11,'16:37:37.753',487.909,0.0,49.7,7.4,3
2026-07-11,'16:37:37.853',364.279,0.0,49.2,7.4,3
2026-07-11,'16:37:38.544',261.466,0.0,49.3,7.4,3
2026-07-11,'16:37:38.565',262.782,0.0,49.3,7.4,3
2026-07-11,'16:37:38.664',403.973,0.0,48.2,7.4,3
2026-07-11,'16:37:38.765',451.708,0.0,47.9,7.4,3
2026-07-11,'16:37:39.467',466.752,0.0,48.0,7.4,3
2026-07-11,'16:37:39.497',470.180,0.0,48.0,7.4,3
2026-07-11,'16:37:39.596',430.878,0.0,48.0,7.4,3
2026-07-11,'16:37:39.696',391.349,0.0,47.8,7.4,3
2026-07-11,'16:37:39.797',381.044,0.0,47.8,7.4,3
2026-07-11,'16:37:39.897',281.541,0.0,47.9,7.4,3
2026-07-11,'16:37:39.996',195.486,0.0,48.2,7.4,3
2026-07-11,'16:37:40.096',142.131,0.0,62.7,7.4,3
2026-07-11,'16:37:40.196',134.333,0.0,74.6,7.4,3
2026-07-11,'16:37:40.297',142.795,0.0,65.9,7.4,3
2026-07-11,'16:37:41.508',139.463,0.0,60.2,7.4,3
2026-07-11,'16:37:41.539',141.619,0.0,56.5,7.4,3
2026-07-11,'16:37:41.638',209.108,0.0,55.8,7.4,3
2026-07-11,'16:37:41.737',225.466,0.0,53.5,7.4,3
2026-07-11,'16:37:41.838',222.127,0.0,51.8,7.4,3
2026-07-11,'16:37:41.938',165.312,0.0,51.2,7.4,3
2026-07-11,'16:37:42.037',117.371,0.0,65.2,7.4,3
2026-07-11,'16:37:42.138',108.750,0.0,77.4,7.4,3
2026-07-11,'16:37:42.237',103.282,0.0,87.9,7.4,3
2026-07-11,'16:37:42.338',102.069,0.0,97.2,7.4,3
2026-07-11,'16:37:42.941',101.857,0.0,104.6,7.4,3
2026-07-11,'16:37:42.972',108.357,0.0,110.9,7.4,3
2026-07-11,'16:37:43.071',249.571,0.0,90.3,7.4,3
2026-07-11,'16:37:43.171',283.549,0.0,75.6,7.4,3
2026-07-11,'16:37:43.271',293.610,0.0,66.2,7.4,3
2026-07-11,'16:37:43.371',211.868,0.0,60.3,7.4,3
2026-07-11,'16:37:43.471',138.666,0.0,62.0,7.4,3
2026-07-11,'16:37:43.570',100.551,0.0,75.0,7.4,3
2026-07-11,'16:37:43.670',99.244,0.0,86.0,7.4,3
2026-07-11,'16:37:43.771',106.760,0.0,94.9,7.4,3
2026-07-11,'16:37:44.983',103.449,0.0,101.9,7.4,3
2026-07-11,'16:37:45.014',103.737,0.0,107.8,7.4,3
2026-07-11,'16:37:45.114',199.347,0.0,88.1,7.4,3
2026-07-11,'16:37:45.214',225.706,0.0,74.1,7.4,3
2026-07-11,'16:37:45.314',237.064,0.0,65.1,7.4,3
2026-07-11,'16:37:45.414',184.248,0.0,59.4,7.4,3
2026-07-11,'16:37:45.514',131.775,0.0,55.8,7.4,3
2026-07-11,'16:37:45.614',105.787,0.0,53.8,7.4,3
2026-07-11,'16:37:45.713',90.541,0.0,53.9,7.4,3
2026-07-11,'16:37:45.814',79.712,0.0,67.7,7.4,3
2026-07-11,'16:37:46.416',69.692,0.0,80.0,7.4,3
2026-07-11,'16:37:46.447',69.817,0.0,90.4,7.4,3
2026-07-11,'16:37:46.546',197.407,0.0,75.8,7.4,3
2026-07-11,'16:37:46.646',227.245,0.0,66.1,7.4,3
2026-07-11,'16:37:46.745',236.924,0.0,59.9,7.4,3
2026-07-11,'16:37:46.845',168.235,0.0,56.1,7.4,3
2026-07-11,'16:37:46.946',113.084,0.0,54.0,7.4,3
2026-07-11,'16:37:47.046',85.615,0.0,53.8,7.4,3
2026-07-11,'16:37:47.145',76.080,0.0,67.8,7.4,3
2026-07-11,'16:37:47.246',74.322,0.0,79.8,7.4,3
2026-07-11,'16:37:48.356',70.907,0.0,89.7,7.4,3
2026-07-11,'16:37:48.386',71.091,0.0,98.1,7.4,3
2026-07-11,'16:37:48.486',84.040,0.0,105.3,7.4,3
2026-07-11,'16:37:48.586',85.429,0.0,85.7,7.4,3
2026-07-11,'16:37:48.685',93.478,0.0,73.1,7.4,3
2026-07-11,'16:37:48.785',84.019,0.0,66.0,7.4,3
2026-07-11,'16:37:48.885',79.248,0.0,78.0,7.4,3
2026-07-11,'16:37:48.986',80.234,0.0,68.6,7.4,3
2026-07-11,'16:37:49.086',80.415,0.0,62.2,7.4,3
2026-07-11,'16:37:49.185',76.501,0.0,74.7,7.4,3
2026-07-11,'16:37:49.802',67.570,0.0,85.9,7.4,3
2026-07-11,'16:37:49.832',70.441,0.0,95.5,7.4,3
2026-07-11,'16:37:49.932',174.771,0.0,78.6,7.4,3
2026-07-11,'16:37:50.032',203.028,0.0,67.9,7.4,3
2026-07-11,'16:37:50.131',213.942,0.0,61.1,7.4,3
2026-07-11,'16:37:50.231',160.007,0.0,56.7,7.4,3
2026-07-11,'16:37:50.331',106.679,0.0,53.9,7.4,3
2026-07-11,'16:37:51.120',77.494,0.0,54.0,7.4,3
2026-07-11,'16:37:51.626',77.524,0.0,54.1,7.4,3
2026-07-11,'16:37:51.647',78.420,0.0,54.0,7.4,3
2026-07-11,'16:37:52.243',134.657,0.0,51.9,7.4,3
2026-07-11,'16:37:52.264',135.657,0.0,50.5,7.4,3
2026-07-11,'16:37:52.364',179.029,0.0,49.4,7.4,3
2026-07-11,'16:37:52.464',191.495,0.0,48.7,7.4,3
2026-07-11,'16:37:52.564',162.692,0.0,48.7,7.4,3
2026-07-11,'16:37:52.663',121.742,0.0,48.9,7.4,3
2026-07-11,'16:37:52.764',113.038,0.0,55.1,7.4,3
2026-07-11,'16:37:52.863',124.189,0.0,54.2,7.4,3
2026-07-11,'16:37:52.964',120.634,0.0,52.2,7.4,3
2026-07-11,'16:37:53.064',105.488,0.0,50.9,7.4,3
2026-07-11,'16:37:53.672',71.686,0.0,50.1,7.4,3
2026-07-11,'16:37:53.701',71.418,0.0,49.6,7.4,3
2026-07-11,'16:37:53.800',53.585,0.0,49.2,7.4,3
2026-07-11,'16:37:53.901',45.428,0.0,48.9,7.4,3
2026-07-11,'16:37:54.001',44.322,6.3,48.7,7.4,79
2026-07-11,'16:37:54.100',34.123,4.3,49.0,7.4,79
2026-07-11,'16:37:54.692',26.079,2.8,53.3,7.4,79
2026-07-11,'16:37:54.712',27.831,3.1,56.9,7.4,79
2026-07-11,'16:37:54.813',58.697,9.1,53.0,7.3,64
2026-07-11,'16:37:54.913',65.767,10.5,51.2,7.3,64
2026-07-11,'16:37:55.511',67.734,10.9,50.2,7.3,64
2026-07-11,'16:37:55.532',67.778,10.9,49.6,7.3,64
2026-07-11,'16:37:55.631',45.146,6.5,49.2,7.3,79
2026-07-11,'16:37:55.732',27.864,3.1,48.6,7.3,79
2026-07-11,'16:37:55.832',19.782,1.6,48.5,7.3,99
2026-07-11,'16:37:55.931',14.196,0.5,48.9,7.2,99
2026-07-11,'16:37:56.031',11.938,0.0,51.4,7.2,99
2026-07-11,'16:37:56.131',14.157,0.5,50.3,7.2,99
2026-07-11,'16:37:56.232',18.505,1.3,49.6,7.2,99
2026-07-11,'16:37:56.332',18.370,1.3,49.4,7.2,99
2026-07-11,'16:37:57.144',15.256,0.7,49.4,7.2,99
2026-07-11,'16:37:57.172',15.439,0.7,49.4,7.2,99
2026-07-11,'16:37:58.678',14.806,0.6,50.7,7.1,99
2026-07-11,'16:37:58.699',15.167,0.7,51.7,7.1,99
2026-07-11,'16:37:58.799',55.504,8.5,51.4,7.1,79
2026-07-11,'16:37:58.899',64.783,10.3,50.3,7.1,64
2026-07-11,'16:37:58.998',67.615,10.8,49.7,7.1,64
2026-07-11,'16:37:59.098',46.865,6.8,49.2,7.1,79
2026-07-11,'16:37:59.199',31.614,3.9,48.4,7.1,79
2026-07-11,'16:37:59.299',22.278,2.1,48.2,7.0,99
2026-07-11,'16:37:59.907',16.685,1.0,48.4,7.0,99
2026-07-11,'16:37:59.929',19.476,1.5,48.6,7.0,99
2026-07-11,'16:38:00.027',56.084,8.6,48.8,7.0,79
2026-07-11,'16:38:01.131',56.334,8.7,48.9,7.0,79
2026-07-11,'16:38:01.151',56.342,8.7,49.0,7.0,79
2026-07-11,'16:38:01.252',62.058,9.8,49.0,7.0,64
2026-07-11,'16:38:01.352',63.929,10.1,49.2,6.9,64
2026-07-11,'16:38:01.451',38.815,5.3,49.0,6.9,79
2026-07-11,'16:38:01.551',23.824,2.4,48.9,6.9,79
2026-07-11,'16:38:01.651',19.223,1.5,48.2,6.9,99
2026-07-11,'16:38:02.360',19.987,1.6,48.2,6.9,99
2026-07-11,'16:38:02.390',20.505,1.7,48.2,6.9,99
2026-07-11,'16:38:02.489',25.662,2.7,47.9,6.9,79
2026-07-11,'16:38:02.589',25.855,2.7,47.8,6.8,79
2026-07-11,'16:38:02.688',23.604,2.3,47.9,6.8,79
2026-07-11,'16:38:02.789',17.973,1.2,48.2,6.8,99
2026-07-11,'16:38:02.889',13.753,0.4,48.4,6.8,99
2026-07-11,'16:38:02.989',12.293,0.1,48.7,6.8,99
2026-07-11,'16:38:03.088',9.789,0.0,61.6,6.8,99
2026-07-11,'16:38:03.789',9.858,0.0,70.1,6.8,99
2026-07-11,'16:38:04.912',9.956,0.0,77.2,6.8,99
2026-07-11,'16:38:04.933',10.301,0.0,83.3,6.7,99
2026-07-11,'16:38:05.033',32.823,4.1,70.0,6.7,79
2026-07-11,'16:38:05.132',38.277,5.2,62.2,6.7,79
2026-07-11,'16:38:05.232',39.353,5.4,57.3,6.7,79
2026-07-11,'16:38:05.333',26.489,2.9,54.1,6.7,79
2026-07-11,'16:38:05.433',15.983,0.8,55.1,6.7,99
2026-07-11,'16:38:05.533',12.169,0.1,63.4,6.7,99
2026-07-11,'16:38:05.632',11.058,0.0,76.5,6.6,99
2026-07-11,'16:38:05.732',10.638,0.0,86.3,6.6,99
2026-07-11,'16:38:06.346',10.569,0.0,81.3,6.6,99
2026-07-11,'16:38:06.376',10.741,0.0,78.1,6.6,99
2026-07-11,'16:38:06.475',22.145,2.0,69.1,6.6,99
2026-07-11,'16:38:06.575',25.375,2.7,61.8,6.6,79
2026-07-11,'16:38:06.674',26.886,2.9,57.2,6.6,79
2026-07-11,'16:38:06.774',20.205,1.7,54.2,6.6,99
2026-07-11,'16:38:06.875',14.776,0.6,59.5,6.5,99
2026-07-11,'16:38:06.975',11.304,0.0,64.1,6.5,99
2026-07-11,'16:38:07.075',9.696,0.0,73.8,6.5,99
2026-07-11,'16:38:07.174',8.698,0.0,83.2,6.5,99
2026-07-11,'16:38:08.285',9.670,0.0,87.1,6.5,99
2026-07-11,'16:38:08.306',9.948,0.0,90.2,6.5,99
2026-07-11,'16:38:08.406',37.177,4.9,75.1,6.5,79
2026-07-11,'16:38:08.506',42.656,6.0,65.6,6.4,79
2026-07-11,'16:38:08.605',44.235,6.3,59.6,6.4,79
2026-07-11,'16:38:08.705',31.983,3.9,55.7,6.4,79
2026-07-11,'16:38:08.805',22.107,2.0,52.8,6.4,99
2026-07-11,'16:38:08.906',18.452,1.3,51.1,6.4,99
2026-07-11,'16:38:09.006',16.320,0.9,50.1,6.4,99
2026-07-11,'16:38:09.105',13.567,0.4,50.0,6.4,99
2026-07-11,'16:38:09.715',12.523,0.2,56.9,6.4,99
2026-07-11,'16:38:09.744',12.630,0.2,62.7,6.3,99
2026-07-11,'16:38:09.843',16.881,1.0,57.9,6.3,99
2026-07-11,'16:38:09.944',18.026,1.2,54.5,6.3,99
2026-07-11,'16:38:10.044',17.448,1.1,52.5,6.3,99
2026-07-11,'16:38:10.143',12.358,0.1,53.5,6.3,99
2026-07-11,'16:38:10.243',12.142,0.1,60.5,6.3,99
2026-07-11,'16:38:10.343',13.530,0.4,60.4,6.3,99
2026-07-11,'16:38:10.444',16.744,1.0,56.4,6.3,99
2026-07-11,'16:38:10.544',16.451,0.9,53.9,6.2,99
2026-07-11,'16:38:11.764',14.550,0.6,52.5,6.2,99
2026-07-11,'16:38:11.785',14.670,0.6,51.7,6.2,99
2026-07-11,'16:38:11.885',15.488,0.7,52.1,6.2,99
2026-07-11,'16:38:11.985',16.350,0.9,50.9,6.2,99
2026-07-11,'16:38:12.085',17.125,1.1,50.3,6.2,99
2026-07-11,'16:38:12.184',15.180,0.7,50.1,6.2,99
2026-07-11,'16:38:12.284',12.138,0.1,50.2,6.2,99
2026-07-11,'16:38:12.384',11.790,0.0,59.0,6.1,99
2026-07-11,'16:38:12.485',13.468,0.3,55.7,6.1,99
2026-07-11,'16:38:12.585',13.805,0.4,53.6,6.1,99
2026-07-11,'16:38:13.192',12.977,0.3,52.6,6.1,99
2026-07-11,'16:38:13.221',12.958,0.2,51.9,6.1,99
2026-07-11,'16:38:13.321',24.044,2.4,50.4,6.1,79
2026-07-11,'16:38:13.420',26.499,2.9,49.5,6.1,79
2026-07-11,'16:38:13.521',27.449,3.1,49.1,6.1,79
2026-07-11,'16:38:13.621',19.159,1.4,49.2,6.0,99
2026-07-11,'16:38:13.720',12.347,0.1,49.8,6.0,99
2026-07-11,'16:38:13.820',11.648,0.0,56.2,6.0,99
2026-07-11,'16:38:13.920',13.520,0.4,54.1,6.0,99
2026-07-11,'16:38:14.021',16.273,0.9,52.1,6.0,99
2026-07-11,'16:38:15.131',15.324,0.7,50.9,6.0,99
2026-07-11,'16:38:15.153',16.228,0.9,50.2,6.0,99
2026-07-11,'16:38:15.252',34.911,4.5,49.3,6.0,79
2026-07-11,'16:38:15.351',39.545,5.4,48.8,6.0,79
2026-07-11,'16:38:15.451',41.664,5.8,48.7,5.9,79
2026-07-11,'16:38:15.552',31.935,3.9,48.3,5.9,79
2026-07-11,'16:38:15.652',21.745,1.9,48.3,5.9,99
2026-07-11,'16:38:15.752',16.489,0.9,48.6,5.9,99
2026-07-11,'16:38:15.851',12.054,0.1,55.1,5.9,99
2026-07-11,'16:38:15.952',11.622,0.0,58.5,5.9,99
2026-07-11,'16:38:16.567',9.969,0.0,55.7,5.9,99
2026-07-11,'16:38:16.595',10.299,0.0,53.9,5.9,99
2026-07-11,'16:38:16.695',16.216,0.9,53.9,5.8,99
2026-07-11,'16:38:16.795',17.862,1.2,52.1,5.8,99
2026-07-11,'16:38:16.895',18.840,1.4,51.0,5.8,99
2026-07-11,'16:38:16.994',15.455,0.7,50.4,5.8,99
2026-07-11,'16:38:17.094',11.426,0.0,50.5,5.8,99
2026-07-11,'16:38:17.195',10.362,0.0,52.2,5.8,99
2026-07-11,'16:38:17.295',9.534,0.0,51.2,5.8,99
2026-07-11,'16:38:17.395',9.808,0.0,54.9,5.8,99
2026-07-11,'16:38:18.608',9.328,0.0,65.3,5.8,99
2026-07-11,'16:38:18.629',10.450,0.0,74.2,5.7,99
2026-07-11,'16:38:18.728',27.732,3.1,66.8,5.7,79
2026-07-11,'16:38:18.829',33.785,4.3,60.3,5.7,79
2026-07-11,'16:38:18.929',35.781,4.7,56.1,5.7,79
2026-07-11,'16:38:19.028',28.077,3.2,53.5,5.7,79
2026-07-11,'16:38:19.128',19.310,1.5,51.9,5.7,99
2026-07-11,'16:38:19.228',16.742,1.0,50.8,5.7,99
2026-07-11,'16:38:19.329',17.363,1.1,49.9,5.7,99
2026-07-11,'16:38:19.429',16.110,0.9,49.4,5.6,99
2026-07-11,'16:38:20.040',13.748,0.4,49.4,5.6,99
2026-07-11,'16:38:20.069',13.711,0.4,49.4,5.6,99
2026-07-11,'16:38:20.169',10.367,0.0,52.1,5.6,99
2026-07-11,'16:38:20.268',8.173,0.0,59.4,5.6,99
2026-07-11,'16:38:20.369',9.857,0.0,65.7,5.6,99
2026-07-11,'16:38:20.469',10.030,0.0,60.9,5.6,99
2026-07-11,'16:38:20.568',9.986,0.0,66.5,5.6,99
2026-07-11,'16:38:20.668',10.512,0.0,69.3,5.6,99
2026-07-11,'16:38:20.768',11.874,0.0,62.4,5.5,99
2026-07-11,'16:38:20.869',14.630,0.6,57.4,5.5,99
2026-07-11,'16:38:21.981',14.402,0.5,54.4,5.5,99
2026-07-11,'16:38:22.002',15.835,0.8,52.5,5.5,99
2026-07-11,'16:38:22.102',33.387,4.2,50.7,5.5,79
2026-07-11,'16:38:22.201',37.275,5.0,49.8,5.5,79
2026-07-11,'16:38:22.301',39.440,5.4,49.2,5.5,79
2026-07-11,'16:38:22.401',29.641,3.5,48.7,5.5,79
2026-07-11,'16:38:22.502',23.631,2.3,48.4,5.5,79
2026-07-11,'16:38:22.602',18.962,1.4,48.3,5.4,99
2026-07-11,'16:38:22.701',14.810,0.6,48.5,5.4,99
2026-07-11,'16:38:22.802',12.405,0.1,50.4,5.4,99
2026-07-11,'16:38:23.415',11.269,0.0,50.3,5.4,99
2026-07-11,'16:38:23.444',11.331,0.0,50.3,5.4,99
2026-07-11,'16:38:23.543',13.203,0.3,50.5,5.4,99
2026-07-11,'16:38:23.643',13.072,0.3,50.5,5.4,99
2026-07-11,'16:38:23.742',13.718,0.4,50.3,5.4,99
2026-07-11,'16:38:23.843',12.037,0.1,50.3,5.4,99
2026-07-11,'16:38:23.942',10.086,0.0,59.3,5.4,99
2026-07-11,'16:38:24.043',10.499,0.0,66.6,5.3,99
2026-07-11,'16:38:24.143',10.908,0.0,61.4,5.3,99
2026-07-11,'16:38:24.242',10.745,0.0,58.4,5.3,99
2026-07-11,'16:38:25.354',11.375,0.0,69.2,5.3,99
2026-07-11,'16:38:25.375',12.106,0.1,78.1,5.3,99
2026-07-11,'16:38:25.474',35.763,4.7,67.0,5.3,79
2026-07-11,'16:38:25.575',41.397,5.8,60.2,5.3,79
2026-07-11,'16:38:25.675',43.128,6.1,55.9,5.3,79
2026-07-11,'16:38:25.774',29.697,3.5,53.4,5.3,79
2026-07-11,'16:38:25.874',20.378,1.7,51.7,5.2,99
2026-07-11,'16:38:25.974',16.411,0.9,50.2,5.2,99
2026-07-11,'16:38:26.075',16.150,0.9,49.5,5.2,99
2026-07-11,'16:38:26.175',15.340,0.7,49.1,5.2,99
2026-07-11,'16:38:26.787',13.217,0.3,49.4,5.2,99
2026-07-11,'16:38:26.816',13.195,0.3,49.7,5.2,99
2026-07-11,'16:38:26.915',10.420,0.0,55.2,5.2,99
2026-07-11,'16:38:27.015',9.091,0.0,60.0,5.2,99
2026-07-11,'16:38:27.116',11.020,0.0,63.1,5.2,99
2026-07-11,'16:38:27.216',11.124,0.0,58.3,5.2,99
2026-07-11,'16:38:27.315',10.768,0.0,55.7,5.1,99
2026-07-11,'16:38:27.415',10.225,0.0,57.7,5.1,99
2026-07-11,'16:38:27.515',12.558,0.2,55.4,5.1,99
2026-07-11,'16:38:27.616',15.329,0.7,53.1,5.1,99
2026-07-11,'16:38:28.726',15.214,0.7,51.6,5.1,99
2026-07-11,'16:38:28.748',15.263,0.7,50.6,5.1,99
2026-07-11,'16:38:28.847',34.476,4.4,49.3,5.1,79
2026-07-11,'16:38:28.947',38.948,5.3,48.6,5.1,79
2026-07-11,'16:38:29.047',40.886,5.7,48.3,5.1,79
2026-07-11,'16:38:29.148',29.514,3.5,48.2,5.1,79
2026-07-11,'16:38:29.248',20.889,1.8,48.2,5.0,99
2026-07-11,'16:38:29.347',15.279,0.7,48.4,5.0,99
2026-07-11,'16:38:29.447',11.798,0.0,50.0,5.0,99
2026-07-11,'16:38:29.547',12.394,0.1,49.6,5.0,99
2026-07-11,'16:38:30.468',14.365,0.5,49.3,5.0,99
2026-07-11,'16:38:30.497',14.961,0.6,49.2,5.0,99
2026-07-11,'16:38:30.596',32.808,4.1,47.9,5.0,79
2026-07-11,'16:38:30.697',36.115,4.7,47.6,5.0,79
2026-07-11,'16:38:30.797',36.813,4.9,47.7,5.0,79
2026-07-11,'16:38:30.897',24.755,2.5,47.8,5.0,79
2026-07-11,'16:38:30.996',17.175,1.1,48.1,4.9,99
2026-07-11,'16:38:31.096',13.000,0.3,48.8,4.9,99
2026-07-11,'16:38:31.197',11.689,0.0,50.8,4.9,99
2026-07-11,'16:38:31.792',11.196,0.0,50.7,4.9,99
2026-07-11,'16:38:32.408',11.699,0.0,50.6,4.9,99
2026-07-11,'16:38:32.430',13.105,0.3,50.6,4.9,99
2026-07-11,'16:38:32.529',29.391,3.4,49.6,4.9,79
2026-07-11,'16:38:32.628',33.663,4.3,49.1,4.9,79
2026-07-11,'16:38:32.729',35.644,4.6,48.8,4.9,79
2026-07-11,'16:38:32.829',26.406,2.9,48.5,4.9,79
2026-07-11,'16:38:32.928',18.882,1.4,48.7,4.8,99
2026-07-11,'16:38:33.028',13.325,0.3,48.8,4.8,99
2026-07-11,'16:38:33.128',12.224,0.1,48.8,4.8,99
2026-07-11,'16:38:33.229',14.771,0.6,48.7,4.8,99
2026-07-11,'16:38:33.953',14.311,0.5,48.6,4.8,99
2026-07-11,'16:38:33.982',14.337,0.5,48.5,4.8,99
2026-07-11,'16:38:34.082',29.885,3.5,48.0,4.8,79
2026-07-11,'16:38:34.181',32.896,4.1,47.9,4.8,79
2026-07-11,'16:38:34.282',34.770,4.5,47.9,4.8,79
2026-07-11,'16:38:35.073',24.990,2.6,48.0,4.8,79
2026-07-11,'16:38:35.094',25.069,2.6,48.0,4.7,79
2026-07-11,'16:38:35.193',28.636,3.3,47.4,4.7,79
2026-07-11,'16:38:35.294',30.284,3.6,47.4,4.7,79
2026-07-11,'16:38:35.394',30.849,3.7,47.5,4.7,79
2026-07-11,'16:38:35.987',22.352,2.1,47.7,4.7,99
2026-07-11,'16:38:36.008',22.443,2.1,47.8,4.7,99
2026-07-11,'16:38:36.108',25.422,2.7,47.3,4.7,79
2026-07-11,'16:38:36.207',26.166,2.8,47.4,4.7,79
2026-07-11,'16:38:36.308',27.106,3.0,47.5,4.7,79
2026-07-11,'16:38:36.408',20.413,1.7,47.6,4.7,99
2026-07-11,'16:38:36.507',14.547,0.6,47.8,4.7,99
2026-07-11,'16:38:36.607',11.631,0.0,48.9,4.6,99
2026-07-11,'16:38:36.707',12.866,0.2,53.2,4.6,99
2026-07-11,'16:38:36.808',14.143,0.5,51.8,4.6,99
2026-07-11,'16:38:37.924',14.041,0.5,50.8,4.6,99
2026-07-11,'16:38:37.954',14.018,0.5,50.2,4.6,99
2026-07-11,'16:38:38.053',24.400,2.5,48.9,4.6,79
2026-07-11,'16:38:38.153',26.894,2.9,48.5,4.6,79
2026-07-11,'16:38:38.252',27.944,3.2,48.5,4.6,79
2026-07-11,'16:38:38.353',20.570,1.7,48.5,4.6,99
2026-07-11,'16:38:38.453',13.361,0.3,48.7,4.6,99
2026-07-11,'16:38:38.552',9.183,0.0,53.0,4.6,99
2026-07-11,'16:38:38.652',8.881,0.0,61.3,4.5,99
2026-07-11,'16:38:38.752',10.330,0.0,59.1,4.5,99
2026-07-11,'16:38:39.359',12.760,0.2,55.7,4.5,99
2026-07-11,'16:38:39.381',13.408,0.3,53.5,4.5,99
2026-07-11,'16:38:39.481',26.148,2.8,51.1,4.5,79
2026-07-11,'16:38:39.581',29.101,3.4,50.0,4.5,79
2026-07-11,'16:38:39.680',29.227,3.4,49.5,4.5,79
2026-07-11,'16:38:39.780',20.987,1.8,49.2,4.5,99
2026-07-11,'16:38:39.880',13.918,0.4,51.0,4.5,99
2026-07-11,'16:38:39.981',10.636,0.0,54.0,4.5,99
2026-07-11,'16:38:40.081',9.374,0.0,55.7,4.5,99
2026-07-11,'16:38:40.180',8.900,0.0,63.6,4.4,99
2026-07-11,'16:38:41.296',9.071,0.0,68.1,4.4,99
2026-07-11,'16:38:41.325',9.359,0.0,71.9,4.4,99
2026-07-11,'16:38:41.424',17.368,1.1,65.2,4.4,99
2026-07-11,'16:38:41.525',18.637,1.3,59.2,4.4,99
2026-07-11,'16:38:41.625',19.353,1.5,56.0,4.4,99
2026-07-11,'16:38:41.724',14.366,0.5,56.3,4.4,99
2026-07-11,'16:38:41.825',12.683,0.2,55.2,4.4,99
2026-07-11,'16:38:41.924',11.422,0.0,61.5,4.4,99
2026-07-11,'16:38:42.025',11.652,0.0,68.4,4.4,99
2026-07-11,'16:38:42.125',10.996,0.0,69.7,4.4,99
2026-07-11,'16:38:42.739',10.032,0.0,72.4,4.3,99
2026-07-11,'16:38:42.760',10.336,0.0,74.7,4.3,99
2026-07-11,'16:38:42.859',19.832,1.6,67.6,4.3,99
2026-07-11,'16:38:42.959',23.901,2.4,60.9,4.3,79
2026-07-11,'16:38:43.060',25.879,2.8,56.4,4.3,79
2026-07-11,'16:38:43.160',20.314,1.7,53.6,4.3,99
2026-07-11,'16:38:43.259',15.360,0.7,52.1,4.3,99
2026-07-11,'16:38:43.359',11.950,0.1,51.2,4.3,99
2026-07-11,'16:38:43.459',11.081,0.0,50.6,4.3,99
2026-07-11,'16:38:43.560',12.129,0.1,50.0,4.3,99
2026-07-11,'16:38:44.669',11.318,0.0,49.4,4.3,99
2026-07-11,'16:38:44.698',11.435,0.0,49.0,4.3,99
2026-07-11,'16:38:44.797',12.480,0.2,49.1,4.2,99
2026-07-11,'16:38:44.896',11.440,0.0,48.9,4.2,99
2026-07-11,'16:38:44.997',11.946,0.1,49.0,4.2,99
2026-07-11,'16:38:45.097',10.108,0.0,49.1,4.2,99
2026-07-11,'16:38:45.197',8.964,0.0,49.5,4.2,99
2026-07-11,'16:38:45.297',7.579,0.0,59.0,4.2,99
2026-07-11,'16:38:45.396',6.431,0.0,69.8,4.2,99
2026-07-11,'16:38:45.496',7.020,0.0,79.2,4.2,99
2026-07-11,'16:38:46.105',8.292,0.0,70.5,4.2,99
2026-07-11,'16:38:46.127',8.523,0.0,64.8,4.2,99
2026-07-11,'16:38:46.227',23.414,2.3,58.1,4.2,79
2026-07-11,'16:38:46.327',27.358,3.0,54.3,4.2,79
2026-07-11,'16:38:46.426',28.519,3.3,52.3,4.1,79
2026-07-11,'16:38:46.526',20.784,1.8,51.0,4.1,99
2026-07-11,'16:38:46.627',14.581,0.6,49.3,4.1,99
2026-07-11,'16:38:46.727',11.548,0.0,48.5,4.1,99
2026-07-11,'16:38:46.827',11.061,0.0,48.7,4.1,99
2026-07-11,'16:38:46.926',9.597,0.0,55.0,4.1,99
2026-07-11,'16:38:48.042',8.236,0.0,63.4,4.1,99
2026-07-11,'16:38:48.072',8.241,0.0,70.4,4.1,99
2026-07-11,'16:38:48.171',9.555,0.0,72.5,4.1,99
2026-07-11,'16:38:48.271',10.553,0.0,64.6,4.1,99
2026-07-11,'16:38:48.371',10.594,0.0,59.5,4.1,99
2026-07-11,'16:38:48.470',9.958,0.0,63.5,4.1,99
2026-07-11,'16:38:48.571',8.931,0.0,72.6,4.0,99
2026-07-11,'16:38:48.670',8.467,0.0,85.7,4.0,99
2026-07-11,'16:38:48.771',7.967,0.0,95.1,4.0,99
2026-07-11,'16:38:48.871',7.357,0.0,100.4,4.0,99
2026-07-11,'16:38:49.679',7.625,0.0,103.8,4.0,99
2026-07-11,'16:38:49.700',7.747,0.0,106.8,4.0,99
2026-07-11,'16:38:49.800',11.209,0.0,107.7,4.0,99
2026-07-11,'16:38:49.900',12.409,0.1,87.1,4.0,99
2026-07-11,'16:38:50.000',12.726,0.2,74.0,4.0,99
2026-07-11,'16:38:50.099',10.534,0.0,67.2,4.0,99
2026-07-11,'16:38:50.199',7.826,0.0,74.5,4.0,99
2026-07-11,'16:38:50.300',6.754,0.0,80.9,4.0,99
2026-07-11,'16:38:50.400',5.974,0.0,85.7,3.9,99
2026-07-11,'16:38:50.500',6.281,0.0,91.5,3.9,99
2026-07-11,'16:38:51.931',6.266,0.0,97.6,3.9,99
2026-07-11,'16:38:51.959',6.275,0.0,102.7,3.9,99
2026-07-11,'16:38:52.059',7.019,0.0,106.2,3.9,99
2026-07-11,'16:38:52.158',6.587,0.0,111.8,3.9,99
2026-07-11,'16:38:52.258',6.596,0.0,114.3,3.9,99
2026-07-11,'16:38:52.358',6.812,0.0,117.0,3.9,99
2026-07-11,'16:38:52.459',7.450,0.0,117.6,3.9,99
2026-07-11,'16:38:52.559',8.378,0.0,117.6,3.9,99
2026-07-11,'16:38:52.659',8.562,0.0,107.6,3.9,99
2026-07-11,'16:38:52.758',7.848,0.0,110.9,3.9,99
2026-07-11,'16:38:53.465',7.340,0.0,107.1,3.9,99
2026-07-11,'16:38:53.487',7.340,0.0,104.6,3.8,99
2026-07-11,'16:38:53.587',9.126,0.0,94.4,3.8,99
2026-07-11,'16:38:53.687',9.713,0.0,78.1,3.8,99
2026-07-11,'16:38:53.786',9.570,0.0,68.2,3.8,99
2026-07-11,'16:38:53.886',7.920,0.0,71.5,3.8,99
2026-07-11,'16:38:53.987',6.732,0.0,82.7,3.8,99
2026-07-11,'16:38:54.087',6.104,0.0,92.0,3.8,99
2026-07-11,'16:38:54.187',6.047,0.0,96.2,3.8,99
2026-07-11,'16:38:57.867',6.465,0.0,111.4,3.8,99
2026-07-11,'16:38:59.296',6.470,0.0,111.5,3.8,99
2026-07-11,'16:38:59.317',6.475,0.0,111.7,3.8,99
2026-07-11,'16:38:59.417',6.586,0.0,113.8,3.8,99
2026-07-11,'16:38:59.517',6.633,0.0,93.9,3.8,99
2026-07-11,'16:38:59.616',6.499,0.0,83.9,3.7,99
2026-07-11,'16:38:59.716',6.245,0.0,93.4,3.7,99
2026-07-11,'16:38:59.817',6.568,0.0,100.6,3.7,99
2026-07-11,'16:38:59.917',6.205,0.0,98.4,3.7,99
2026-07-11,'16:39:00.017',6.026,0.0,97.1,3.7,99
2026-07-11,'16:39:00.635',6.184,0.0,96.3,3.7,99
2026-07-11,'16:39:01.335',9.257,0.0,92.1,3.7,99
2026-07-11,'16:39:01.356',9.270,0.0,89.0,3.7,99
2026-07-11,'16:39:01.456',10.841,0.0,74.6,3.7,99
2026-07-11,'16:39:01.556',11.316,0.0,65.8,3.7,99
2026-07-11,'16:39:02.250',9.481,0.0,60.3,3.7,99
2026-07-11,'16:39:02.271',9.427,0.0,56.8,3.7,99
2026-07-11,'16:39:02.370',8.862,0.0,58.5,3.7,99
2026-07-11,'16:39:02.471',8.192,0.0,55.9,3.7,99
2026-07-11,'16:39:02.571',8.090,0.0,53.7,3.6,99
2026-07-11,'16:39:02.671',6.811,0.0,57.0,3.6,99
2026-07-11,'16:39:03.997',9.152,0.0,58.4,3.6,99
2026-07-11,'16:39:04.018',9.150,0.0,59.1,3.6,99
2026-07-11,'16:39:04.118',9.653,0.0,55.6,3.6,99
2026-07-11,'16:39:04.218',9.639,0.0,54.4,3.6,99
2026-07-11,'16:39:04.317',7.375,0.0,56.4,3.6,99
2026-07-11,'16:39:04.418',6.491,0.0,66.6,3.6,99
2026-07-11,'16:39:04.517',5.960,0.0,76.9,3.6,99
2026-07-11,'16:39:04.618',6.252,0.0,87.2,3.6,99
2026-07-11,'16:39:07.156',5.764,0.0,94.7,3.6,99
2026-07-11,'16:39:08.289',5.799,0.0,137.4,3.6,99
2026-07-11,'16:39:08.311',5.851,0.0,137.4,3.6,99
2026-07-11,'16:39:08.410',6.246,0.0,143.6,3.6,99
2026-07-11,'16:39:08.509',6.509,0.0,142.7,3.5,99
2026-07-11,'16:39:08.610',6.610,0.0,141.0,3.5,99
2026-07-11,'16:39:08.709',7.138,0.0,129.6,3.5,99
2026-07-11,'16:39:08.810',8.762,0.2,120.1,3.5,99
2026-07-11,'16:39:08.910',10.786,0.6,121.4,3.5,99
2026-07-11,'16:39:09.009',12.684,1.0,121.7,3.5,99
2026-07-11,'16:39:09.109',21.057,2.6,122.1,3.5,79
2026-07-11,'16:39:09.916',25.874,3.5,123.5,3.5,79
2026-07-11,'16:39:09.946',25.895,3.5,124.6,3.5,79
2026-07-11,'16:39:10.044',36.888,5.6,115.0,3.5,79
2026-07-11,'16:39:10.145',45.623,7.3,108.7,3.5,64
2026-07-11,'16:39:10.245',47.586,7.7,106.3,3.5,64
2026-07-11,'16:39:10.345',42.927,6.8,87.8,3.5,64
2026-07-11,'16:39:10.445',33.459,5.0,84.9,3.5,79
2026-07-11,'16:39:10.544',24.849,3.3,89.4,3.4,79
2026-07-11,'16:39:10.644',20.249,2.4,93.6,3.4,79
2026-07-11,'16:39:10.745',25.971,3.5,96.5,3.4,79
2026-07-11,'16:39:12.572',28.652,4.0,99.8,3.4,79
2026-07-11,'16:39:12.602',39.580,6.1,102.7,3.4,64
2026-07-11,'16:39:12.702',148.380,27.1,84.8,3.4,64
2026-07-11,'16:39:12.802',171.833,0.0,72.2,3.4,3
2026-07-11,'16:39:12.902',180.224,0.0,64.0,3.4,3
2026-07-11,'16:39:13.002',131.820,0.0,58.8,3.4,3
2026-07-11,'16:39:13.101',92.214,0.0,55.8,3.4,3
2026-07-11,'16:39:13.202',77.684,0.0,54.5,3.4,3
2026-07-11,'16:39:13.301',69.046,0.0,59.6,3.4,3
2026-07-11,'16:39:13.402',72.785,0.0,72.4,3.4,3
2026-07-11,'16:39:14.009',68.795,0.0,64.5,3.4,3
2026-07-11,'16:39:14.040',68.872,0.0,59.4,3.4,3
2026-07-11,'16:39:14.138',111.915,0.0,56.0,3.4,3
2026-07-11,'16:39:14.238',138.825,0.0,53.2,3.4,3
2026-07-11,'16:39:14.339',162.216,0.0,51.3,3.4,3
2026-07-11,'16:39:14.439',146.261,0.0,50.2,3.4,3
2026-07-11,'16:39:15.240',117.029,0.0,49.8,3.4,3
2026-07-11,'16:39:15.261',117.794,0.0,49.5,3.4,3
2026-07-11,'16:39:15.360',149.083,0.0,48.8,3.4,3
2026-07-11,'16:39:15.461',145.237,0.0,48.4,3.4,3
2026-07-11,'16:39:16.155',147.196,0.0,48.4,3.4,3
2026-07-11,'16:39:16.186',150.570,0.0,48.4,3.4,3
2026-07-11,'16:39:16.285',268.261,0.0,48.5,3.4,3
2026-07-11,'16:39:16.385',303.252,0.0,48.5,3.4,3
2026-07-11,'16:39:16.484',317.182,0.0,48.4,3.4,3
2026-07-11,'16:39:16.585',225.707,0.0,48.4,3.4,3
2026-07-11,'16:39:16.685',136.651,0.0,48.1,3.4,3
2026-07-11,'16:39:16.784',78.813,0.0,48.4,3.4,3
2026-07-11,'16:39:16.884',55.042,0.0,48.4,3.4,3
2026-07-11,'16:39:16.984',49.559,0.0,48.5,3.4,3
2026-07-11,'16:39:18.194',62.161,0.0,48.7,3.4,3
2026-07-11,'16:39:18.225',62.674,0.0,48.8,3.4,3
2026-07-11,'16:39:18.324',78.953,0.0,48.0,3.4,3
2026-07-11,'16:39:18.425',76.662,0.0,47.9,3.4,3
2026-07-11,'16:39:18.524',65.679,0.0,48.4,3.4,3
2026-07-11,'16:39:18.625',48.433,0.0,49.5,3.4,3
2026-07-11,'16:39:18.725',40.607,0.0,49.9,3.4,3
2026-07-11,'16:39:18.824',36.707,0.0,51.4,3.4,3
2026-07-11,'16:39:18.925',35.781,0.0,56.8,3.4,3
2026-07-11,'16:39:19.024',34.876,0.0,54.2,3.4,3
2026-07-11,'16:39:19.737',85.136,0.0,52.5,3.4,3
2026-07-11,'16:39:19.768',85.300,0.0,51.4,3.4,3
2026-07-11,'16:39:19.866',120.819,0.0,50.0,3.4,3
2026-07-11,'16:39:19.966',141.618,0.0,54.4,3.4,3
2026-07-11,'16:39:20.066',140.765,0.0,66.5,3.4,3
2026-07-11,'16:39:20.167',139.402,0.0,77.8,3.4,3
2026-07-11,'16:39:20.267',135.348,0.0,85.9,3.4,3
2026-07-11,'16:39:20.367',124.443,0.0,92.3,3.4,3
2026-07-11,'16:39:20.466',125.541,0.0,99.3,3.4,3
2026-07-11,'16:39:20.566',128.296,0.0,105.8,3.4,3
2026-07-11,'16:39:21.771',147.642,0.0,109.5,3.4,3
2026-07-11,'16:39:21.802',149.011,0.0,112.7,3.4,3
2026-07-11,'16:39:21.902',170.622,0.0,112.2,3.4,3
2026-07-11,'16:39:22.001',175.480,0.0,90.6,3.4,3
2026-07-11,'16:39:22.102',181.337,0.0,83.4,3.4,3
2026-07-11,'16:39:22.201',179.105,0.0,87.9,3.4,3
2026-07-11,'16:39:22.302',177.358,0.0,94.7,3.4,3
2026-07-11,'16:39:22.402',181.870,0.0,100.6,3.4,3
2026-07-11,'16:39:22.501',175.005,0.0,106.7,3.4,3
2026-07-11,'16:39:22.602',178.308,0.0,112.3,3.4,3
2026-07-11,'16:39:23.209',162.125,0.0,115.2,3.4,3
2026-07-11,'16:39:23.238',161.723,0.0,117.4,3.4,3
2026-07-11,'16:39:23.339',168.582,0.0,113.5,3.4,3
2026-07-11,'16:39:23.440',158.190,0.0,92.4,3.4,3
2026-07-11,'16:39:23.538',157.396,0.0,89.9,3.4,3
2026-07-11,'16:39:23.638',139.765,0.0,100.5,3.4,3
2026-07-11,'16:39:23.738',129.098,0.0,110.8,3.4,3
2026-07-11,'16:39:23.839',134.259,0.0,114.0,3.4,3
2026-07-11,'16:39:23.939',136.557,0.0,116.5,3.4,3
2026-07-11,'16:39:24.038',134.285,0.0,123.1,3.4,3
2026-07-11,'16:39:25.144',125.089,0.0,130.3,3.4,3
2026-07-11,'16:39:25.174',124.989,0.0,136.5,3.4,3
2026-07-11,'16:39:25.274',125.980,0.0,126.4,3.4,3
2026-07-11,'16:39:25.374',126.269,0.0,99.6,3.4,3
2026-07-11,'16:39:25.474',114.089,0.0,82.0,3.4,3
2026-07-11,'16:39:25.573',99.522,0.0,71.7,3.4,3
2026-07-11,'16:39:25.673',88.536,0.0,81.7,3.4,3
2026-07-11,'16:39:25.773',80.850,0.0,93.1,3.4,3
2026-07-11,'16:39:25.874',74.412,0.0,100.1,3.4,3
2026-07-11,'16:39:25.974',69.371,0.0,87.0,3.4,3
2026-07-11,'16:39:26.581',63.625,0.0,93.5,3.4,3
2026-07-11,'16:39:26.612',63.630,0.0,99.3,3.4,3
2026-07-11,'16:39:26.710',64.292,0.0,104.6,3.4,3
2026-07-11,'16:39:26.811',69.860,0.0,99.9,3.4,3
2026-07-11,'16:39:26.911',73.131,0.0,87.1,3.4,3
2026-07-11,'16:39:27.905',66.265,0.0,92.6,3.4,3
2026-07-11,'16:39:28.629',66.441,0.0,97.6,3.4,3
2026-07-11,'16:39:28.651',65.428,0.0,102.0,3.4,3
2026-07-11,'16:39:28.749',59.059,0.0,107.1,3.4,3
2026-07-11,'16:39:28.850',50.455,0.0,88.7,3.4,3
2026-07-11,'16:39:29.654',44.044,0.0,93.0,3.4,3
2026-07-11,'16:39:29.676',44.543,0.0,97.0,3.4,3
2026-07-11,'16:39:29.774',49.581,0.0,93.6,3.4,3
2026-07-11,'16:39:29.875',50.491,0.0,77.8,3.4,3
2026-07-11,'16:39:29.974',50.177,13.7,67.4,3.4,64
2026-07-11,'16:39:30.075',33.943,8.5,60.8,3.4,79
2026-07-11,'16:39:30.175',20.523,4.2,56.3,3.4,79
2026-07-11,'16:39:30.274',12.303,1.5,54.1,3.4,99
2026-07-11,'16:39:30.374',8.753,0.4,52.4,3.4,99
2026-07-11,'16:39:30.474',9.486,0.6,52.5,3.4,99
2026-07-11,'16:39:32.304',14.313,2.2,51.8,3.4,99
2026-07-11,'16:39:32.334',14.340,2.2,51.4,3.4,99
2026-07-11,'16:39:32.433',20.342,4.1,51.6,3.4,79
2026-07-11,'16:39:32.532',23.422,5.1,50.7,3.3,79
2026-07-11,'16:39:32.634',21.844,4.6,50.0,3.3,79
2026-07-11,'16:39:32.733',22.039,4.6,49.6,3.3,79
2026-07-11,'16:39:32.832',19.643,3.9,49.3,3.3,79
2026-07-11,'16:39:32.933',17.680,3.2,49.0,3.3,79
2026-07-11,'16:39:33.032',11.726,1.3,48.8,3.3,99
2026-07-11,'16:39:33.133',8.027,0.1,50.1,3.3,99
2026-07-11,'16:39:33.945',7.650,0.0,50.2,3.3,99
2026-07-11,'16:39:33.966',9.355,0.6,50.3,3.3,99
2026-07-11,'16:39:34.066',38.927,10.1,49.3,3.3,64
2026-07-11,'16:39:34.167',45.160,12.1,48.9,3.3,64
2026-07-11,'16:39:34.266',46.236,12.5,48.8,3.3,64
2026-07-11,'16:39:34.365',30.345,7.3,48.9,3.3,79
2026-07-11,'16:39:34.466',16.278,2.8,48.7,3.3,79
2026-07-11,'16:39:35.371',10.877,1.0,48.3,3.3,99
2026-07-11,'16:39:35.393',13.346,1.8,48.1,3.2,99
2026-07-11,'16:39:35.491',43.056,11.4,48.6,3.2,64
2026-07-11,'16:39:36.398',49.737,13.6,48.4,3.2,64
2026-07-11,'16:39:36.428',49.734,13.6,48.3,3.2,64
2026-07-11,'16:39:36.526',52.478,14.5,48.0,3.2,64
2026-07-11,'16:39:36.626',37.961,9.8,47.2,3.2,79
2026-07-11,'16:39:36.727',27.252,6.3,47.2,3.2,79
2026-07-11,'16:39:36.827',21.196,4.4,47.3,3.2,79
2026-07-11,'16:39:36.927',16.077,2.7,47.6,3.2,79
2026-07-11,'16:39:37.026',9.965,0.7,48.0,3.2,99
2026-07-11,'16:39:37.127',8.908,0.4,48.3,3.2,99
2026-07-11,'16:39:37.226',8.466,0.3,48.3,3.2,99
2026-07-11,'16:39:38.330',10.964,1.1,48.5,3.2,99
2026-07-11,'16:39:38.351',11.378,1.2,48.6,3.2,99
2026-07-11,'16:39:38.451',39.635,10.3,47.1,3.2,64
2026-07-11,'16:39:38.550',46.640,12.6,47.2,3.1,64
2026-07-11,'16:39:38.650',47.488,12.9,47.3,3.1,64
2026-07-11,'16:39:38.750',31.595,7.7,47.2,3.1,79
2026-07-11,'16:39:38.851',18.645,3.6,46.8,3.1,79
2026-07-11,'16:39:38.951',14.400,2.2,47.0,3.1,99
2026-07-11,'16:39:39.051',12.093,1.4,47.4,3.1,99
2026-07-11,'16:39:39.150',8.656,0.3,51.0,3.1,99
2026-07-11,'16:39:39.766',9.238,0.5,54.6,3.1,99
2026-07-11,'16:39:39.793',9.381,0.6,57.6,3.1,99
2026-07-11,'16:39:39.894',20.158,4.0,56.4,3.1,79
2026-07-11,'16:39:39.993',27.507,6.4,53.6,3.1,79
2026-07-11,'16:39:40.093',27.138,6.3,52.3,3.1,79
2026-07-11,'16:39:40.194',22.806,4.9,52.4,3.1,79
2026-07-11,'16:39:40.293',14.753,2.3,51.7,3.1,99
2026-07-11,'16:39:40.394',16.736,2.9,54.9,3.1,79
2026-07-11,'16:39:40.494',15.508,2.5,53.9,3.1,79
2026-07-11,'16:39:40.593',15.686,2.6,57.8,3.0,79
2026-07-11,'16:39:41.707',13.093,1.8,62.8,3.0,99
2026-07-11,'16:39:41.728',13.198,1.8,66.9,3.0,99
2026-07-11,'16:39:41.828',40.325,10.6,59.6,3.0,64
2026-07-11,'16:39:41.928',46.097,12.4,55.4,3.0,64
2026-07-11,'16:39:42.028',47.566,12.9,53.0,3.0,64
2026-07-11,'16:39:42.127',32.898,8.2,51.4,3.0,79
2026-07-11,'16:39:42.227',25.425,5.7,52.7,3.0,79
2026-07-11,'16:39:42.327',24.451,5.4,52.9,3.0,79
2026-07-11,'16:39:42.428',27.126,6.3,50.9,3.0,79
2026-07-11,'16:39:42.528',66.138,18.9,50.0,3.0,64
2026-07-11,'16:39:43.139',66.751,19.1,49.4,3.0,64
2026-07-11,'16:39:43.168',66.740,19.1,49.0,3.0,64
2026-07-11,'16:39:43.268',80.372,23.5,50.0,3.0,64
2026-07-11,'16:39:43.368',59.037,16.6,52.4,3.0,64
2026-07-11,'16:39:43.468',60.639,17.1,58.1,3.0,64
2026-07-11,'16:39:43.568',43.927,11.7,69.5,3.0,64
2026-07-11,'16:39:43.667',37.815,9.7,62.9,2.9,79
2026-07-11,'16:39:43.767',33.167,8.2,57.4,2.9,79
2026-07-11,'16:39:43.867',34.748,8.8,53.3,2.9,79
2026-07-11,'16:39:43.968',35.491,0.0,51.6,2.9,3
2026-07-11,'16:39:45.076',34.485,0.0,50.2,2.9,3
2026-07-11,'16:39:45.097',35.157,0.0,49.3,2.9,3
2026-07-11,'16:39:45.197',108.425,0.0,49.4,2.9,3
2026-07-11,'16:39:45.296',123.454,0.0,49.7,2.9,3
2026-07-11,'16:39:45.396',138.688,0.0,50.0,2.9,3
2026-07-11,'16:39:45.496',126.771,0.0,49.4,2.9,3
2026-07-11,'16:39:45.597',126.485,0.0,48.9,2.9,3
2026-07-11,'16:39:45.697',120.928,0.0,48.7,2.9,3
2026-07-11,'16:39:45.796',115.887,0.0,48.7,2.9,3
2026-07-11,'16:39:45.896',111.809,0.0,48.5,2.9,3
2026-07-11,'16:39:46.511',123.154,0.0,48.0,2.9,3
2026-07-11,'16:39:46.541',123.260,0.0,47.7,2.9,3
2026-07-11,'16:39:46.641',228.095,0.0,46.8,2.9,3
2026-07-11,'16:39:46.740',275.943,0.0,46.9,2.9,3
2026-07-11,'16:39:46.839',286.101,0.0,47.2,2.9,3
2026-07-11,'16:39:46.939',220.465,0.0,47.4,2.9,3
2026-07-11,'16:39:47.040',137.470,0.0,47.2,2.9,3
2026-07-11,'16:39:47.140',67.563,0.0,47.6,2.9,3
2026-07-11,'16:39:47.240',57.625,0.0,62.3,2.9,3
2026-07-11,'16:39:47.339',49.134,0.0,74.7,2.9,3
2026-07-11,'16:39:48.550',54.884,0.0,76.0,2.9,3
2026-07-11,'16:39:48.571',55.080,0.0,76.8,2.9,3
2026-07-11,'16:39:48.671',275.623,0.0,66.1,2.9,3
2026-07-11,'16:39:48.771',322.215,0.0,59.6,2.9,3
2026-07-11,'16:39:48.870',337.588,0.0,55.7,2.9,3
2026-07-11,'16:39:48.970',238.088,0.0,53.1,2.9,3
2026-07-11,'16:39:49.070',158.526,0.0,51.1,2.9,3
2026-07-11,'16:39:49.171',126.327,0.0,49.8,2.9,3
2026-07-11,'16:39:49.271',104.684,0.0,49.1,2.9,3
2026-07-11,'16:39:49.371',83.278,0.0,49.0,2.9,3
2026-07-11,'16:39:49.986',56.335,0.0,49.2,2.9,3
2026-07-11,'16:39:50.015',55.858,0.0,49.3,2.9,3
2026-07-11,'16:39:50.115',159.236,0.0,48.6,2.9,3
2026-07-11,'16:39:50.215',187.522,0.0,48.3,2.9,3
2026-07-11,'16:39:50.315',199.145,0.0,48.3,2.9,3
2026-07-11,'16:39:50.415',148.532,0.0,48.4,2.9,3
2026-07-11,'16:39:50.514',101.026,0.0,48.4,2.9,3
2026-07-11,'16:39:50.615',70.763,0.0,48.4,2.9,3
2026-07-11,'16:39:50.714',50.889,0.0,48.8,2.9,3
2026-07-11,'16:39:50.815',52.933,0.0,50.1,2.9,3
2026-07-11,'16:39:52.639',50.780,0.0,49.2,2.9,3
2026-07-11,'16:39:52.669',56.952,0.0,49.2,2.9,3
2026-07-11,'16:39:52.769',185.792,0.0,48.6,2.9,3
2026-07-11,'16:39:52.868',211.336,0.0,48.3,2.9,3
2026-07-11,'16:39:52.969',231.261,0.0,48.3,2.9,3
2026-07-11,'16:39:53.069',168.232,0.0,48.2,2.9,3
2026-07-11,'16:39:53.168',122.570,0.0,48.3,2.9,3
2026-07-11,'16:39:53.268',89.174,0.0,48.3,2.9,3
2026-07-11,'16:39:53.368',93.722,0.0,48.0,2.9,3
2026-07-11,'16:39:53.469',116.360,0.0,47.9,2.9,3
2026-07-11,'16:39:54.176',113.462,0.0,47.9,2.9,3
2026-07-11,'16:39:54.207',114.134,0.0,47.9,2.9,3
2026-07-11,'16:39:54.306',142.005,0.0,47.9,2.9,3
2026-07-11,'16:39:54.406',135.618,0.0,47.9,2.9,3
2026-07-11,'16:39:55.091',131.695,0.0,48.0,2.9,3
2026-07-11,'16:39:55.112',136.559,0.0,48.0,2.9,3
2026-07-11,'16:39:55.212',226.117,0.0,47.5,2.9,3
2026-07-11,'16:39:55.312',252.574,0.0,47.6,2.9,3
2026-07-11,'16:39:55.411',264.182,0.0,47.7,2.9,3
2026-07-11,'16:39:55.511',180.703,0.0,47.8,2.9,3
2026-07-11,'16:39:56.118',112.832,0.0,47.3,2.9,3
2026-07-11,'16:39:56.149',114.638,0.0,46.9,2.9,3
2026-07-11,'16:39:56.249',150.862,0.0,46.6,2.9,3
2026-07-11,'16:39:56.349',165.797,0.0,46.8,2.9,3
2026-07-11,'16:39:56.448',168.798,0.0,47.1,2.9,3
2026-07-11,'16:39:56.549',129.102,0.0,47.2,2.9,3
2026-07-11,'16:39:56.648',92.169,0.0,47.4,2.9,3
2026-07-11,'16:39:56.749',91.474,0.0,47.6,2.9,3
2026-07-11,'16:39:56.849',75.380,0.0,47.7,2.9,3
2026-07-11,'16:39:56.948',72.316,0.0,47.9,2.9,3
2026-07-11,'16:39:58.055',90.841,0.0,48.0,2.9,3
2026-07-11,'16:39:58.085',102.126,0.0,48.1,2.9,3
2026-07-11,'16:39:58.185',213.665,0.0,47.7,2.9,3
2026-07-11,'16:39:58.285',229.067,0.0,47.5,2.9,3
2026-07-11,'16:39:58.385',222.398,0.0,47.5,2.9,3
2026-07-11,'16:39:58.484',141.315,0.0,47.6,2.9,3
2026-07-11,'16:39:58.584',95.502,0.0,47.4,2.9,3
2026-07-11,'16:39:58.684',100.315,0.0,47.7,2.9,3
2026-07-11,'16:39:58.785',105.583,0.0,47.8,2.9,3
2026-07-11,'16:39:58.885',205.006,0.0,46.4,2.9,3
2026-07-11,'16:39:59.599',765.270,0.0,46.5,2.9,3
2026-07-11,'16:39:59.629',765.599,0.0,46.6,2.9,3
2026-07-11,'16:39:59.728',1045.456,0.0,47.3,2.9,3
2026-07-11,'16:39:59.829',1371.850,0.0,47.9,2.9,3
2026-07-11,'16:39:59.929',1363.854,0.0,45.9,2.9,3
2026-07-11,'16:40:00.028',1264.769,0.0,45.9,2.9,3
2026-07-11,'16:40:01.540',1265.503,0.0,46.0,2.9,3
2026-07-11,'16:40:01.562',1259.682,0.0,46.0,2.9,3
2026-07-11,'16:40:01.662',1302.713,0.0,46.9,2.9,3
2026-07-11,'16:40:01.761',1339.945,0.0,47.1,2.9,3
2026-07-11,'16:40:03.069',1470.179,0.0,47.3,2.9,3
2026-07-11,'16:40:03.091',1469.331,0.0,48.7,2.9,3
2026-07-11,'16:40:03.190',1384.017,0.0,53.5,2.9,3
2026-07-11,'16:40:03.998',1310.222,0.0,66.5,2.9,3
2026-07-11,'16:40:04.597',1310.562,0.0,74.0,2.9,3
2026-07-11,'16:40:04.617',1310.608,0.0,78.6,2.9,3
2026-07-11,'16:40:04.718',1285.845,0.0,98.4,2.9,3
2026-07-11,'16:40:04.818',1248.635,0.0,81.6,2.9,3
2026-07-11,'16:40:05.415',1162.269,0.0,70.3,2.9,3
2026-07-11,'16:40:05.437',1158.094,0.0,63.0,2.9,3
2026-07-11,'16:40:05.535',957.772,0.0,75.6,2.9,3
2026-07-11,'16:40:05.635',1153.720,0.0,80.4,2.9,3
2026-07-11,'16:40:05.736',1191.727,0.0,69.2,2.9,3
2026-07-11,'16:40:05.836',1200.501,0.0,62.0,2.9,3
2026-07-11,'16:40:05.936',985.520,0.0,58.0,2.9,3
2026-07-11,'16:40:06.035',826.844,0.0,85.7,2.9,3
2026-07-11,'16:40:06.136',740.031,0.0,109.5,2.9,3
2026-07-11,'16:40:06.235',664.244,0.0,129.8,2.9,3
2026-07-11,'16:40:06.850',615.252,0.0,147.3,2.9,3
2026-07-11,'16:40:06.872',629.017,0.0,162.2,2.9,3
2026-07-11,'16:40:06.971',1017.735,0.0,123.7,2.9,3
2026-07-11,'16:40:07.561',1117.335,0.0,97.4,2.9,3
2026-07-11,'16:40:07.583',1125.294,0.0,80.2,2.9,3
2026-07-11,'16:40:07.681',1449.299,0.0,68.9,2.9,3
2026-07-11,'16:40:07.781',1344.305,0.0,61.3,2.9,3
2026-07-11,'16:40:07.881',1277.933,0.0,56.8,2.9,3
2026-07-11,'16:40:07.982',966.806,0.0,54.1,2.9,3
2026-07-11,'16:40:08.082',741.463,0.0,58.0,2.9,3
2026-07-11,'16:40:08.691',673.234,0.0,71.5,2.9,3
2026-07-11,'16:40:08.713',694.023,0.0,82.9,2.9,3
2026-07-11,'16:40:08.811',1316.490,0.0,74.3,2.9,3
2026-07-11,'16:40:08.911',1402.367,0.0,65.5,2.9,3
2026-07-11,'16:40:09.011',1442.585,0.0,60.9,2.9,3
2026-07-11,'16:40:09.112',1084.641,0.0,56.8,2.9,3
2026-07-11,'16:40:09.212',827.938,0.0,55.2,2.9,3
2026-07-11,'16:40:09.312',741.795,0.0,68.9,2.9,3
2026-07-11,'16:40:09.411',715.283,0.0,63.9,2.9,3
2026-07-11,'16:40:09.511',699.398,0.0,60.4,2.9,3
2026-07-11,'16:40:10.628',691.087,0.0,73.3,2.9,3
2026-07-11,'16:40:10.648',712.761,0.0,84.3,2.9,3
2026-07-11,'16:40:10.749',931.961,0.0,92.2,2.9,3
2026-07-11,'16:40:10.849',1003.447,0.0,77.0,2.9,3
2026-07-11,'16:40:10.949',1041.154,0.0,67.5,2.9,3
2026-07-11,'16:40:11.048',862.712,0.0,79.2,2.9,3
2026-07-11,'16:40:11.148',741.490,0.0,89.4,2.9,3
2026-07-11,'16:40:11.248',651.686,0.0,97.9,2.9,3
2026-07-11,'16:40:11.349',629.913,0.0,105.3,2.9,3
2026-07-11,'16:40:11.449',593.547,0.0,111.4,2.9,3
2026-07-11,'16:40:12.175',601.500,0.0,116.9,2.9,3
2026-07-11,'16:40:12.196',602.973,0.0,121.5,2.9,3
2026-07-11,'16:40:12.295',1250.074,0.0,98.3,2.9,3
2026-07-11,'16:40:12.396',1543.352,0.0,81.2,2.9,3
2026-07-11,'16:40:12.496',1655.324,0.0,70.5,2.9,3
2026-07-11,'16:40:12.596',1389.990,0.0,63.0,2.9,3
2026-07-11,'16:40:12.695',1008.327,0.0,58.6,2.9,3
2026-07-11,'16:40:12.796',761.202,0.0,71.6,2.9,3
2026-07-11,'16:40:12.896',632.402,0.0,82.8,2.9,3
2026-07-11,'16:40:12.996',612.108,0.0,92.6,2.9,3
2026-07-11,'16:40:14.216',630.049,0.0,101.1,2.9,3
2026-07-11,'16:40:14.237',635.336,0.0,108.3,2.9,3
2026-07-11,'16:40:14.337',769.316,0.0,114.5,2.9,3
2026-07-11,'16:40:14.436',818.570,0.0,93.3,2.9,3
2026-07-11,'16:40:14.537',819.503,0.0,101.1,2.9,3
2026-07-11,'16:40:14.637',727.305,0.0,108.0,2.9,3
2026-07-11,'16:40:14.736',629.865,0.0,114.2,2.9,3
2026-07-11,'16:40:14.836',584.545,0.0,119.4,2.9,3
2026-07-11,'16:40:14.936',616.812,0.0,123.5,2.9,3
2026-07-11,'16:40:15.037',722.341,0.0,126.8,2.9,3
2026-07-11,'16:40:15.642',773.190,0.0,129.5,2.9,3
2026-07-11,'16:40:15.664',804.998,0.0,131.8,2.9,3
2026-07-11,'16:40:15.763',1286.283,0.0,104.7,2.9,3
2026-07-11,'16:40:15.862',1501.353,0.0,85.3,2.9,3
2026-07-11,'16:40:15.962',1595.428,0.0,73.0,2.9,3
2026-07-11,'16:40:16.062',1388.235,0.0,64.4,2.9,3
2026-07-11,'16:40:16.163',1102.739,0.0,59.0,2.9,3
2026-07-11,'16:40:16.263',947.699,0.0,56.0,2.9,3
2026-07-11,'16:40:16.362',843.695,0.0,69.5,2.9,3
2026-07-11,'16:40:16.462',779.009,0.0,81.1,2.9,3
2026-07-11,'16:40:17.579',752.250,0.0,90.7,2.9,3
2026-07-11,'16:40:17.600',749.311,0.0,98.9,2.9,3
2026-07-11,'16:40:17.700',932.189,0.0,82.0,2.9,3
2026-07-11,'16:40:17.800',978.092,0.0,70.4,2.9,3
2026-07-11,'16:40:17.900',975.554,0.0,63.4,2.9,3
2026-07-11,'16:40:17.999',805.272,0.0,75.8,2.9,3
2026-07-11,'16:40:18.099',666.963,0.0,86.6,2.9,3
2026-07-11,'16:40:18.200',655.542,0.0,95.5,2.9,3
2026-07-11,'16:40:18.300',688.536,0.0,103.1,2.9,3
2026-07-11,'16:40:18.400',716.663,0.0,109.8,2.9,3
2026-07-11,'16:40:19.015',705.668,0.0,115.7,2.9,3
2026-07-11,'16:40:19.036',730.511,0.0,120.7,2.9,3
2026-07-11,'16:40:19.136',1027.263,0.0,124.8,2.9,3
2026-07-11,'16:40:19.235',1294.363,0.0,98.0,2.9,3
2026-07-11,'16:40:19.336',1367.837,0.0,79.9,2.9,3
2026-07-11,'16:40:19.436',1231.963,0.0,69.1,2.9,3
2026-07-11,'16:40:19.535',915.963,0.0,63.2,2.9,3
2026-07-11,'16:40:19.635',716.587,0.0,75.5,2.9,3
2026-07-11,'16:40:19.735',676.974,0.0,86.2,2.9,3
2026-07-11,'16:40:19.836',735.305,0.0,95.2,2.9,3
2026-07-11,'16:40:21.054',776.700,0.0,102.7,2.9,3
2026-07-11,'16:40:21.075',776.725,0.0,109.1,2.9,3
2026-07-11,'16:40:21.175',746.964,0.0,114.8,2.9,3
2026-07-11,'16:40:21.274',700.511,0.0,119.7,2.9,3
2026-07-11,'16:40:21.375',704.934,0.0,124.0,2.9,3
2026-07-11,'16:40:21.474',725.536,0.0,127.3,2.9,3
2026-07-11,'16:40:21.575',758.168,0.0,130.3,2.9,3
2026-07-11,'16:40:21.675',703.972,0.0,132.6,2.9,3
2026-07-11,'16:40:21.774',641.419,0.0,134.9,2.9,3
2026-07-11,'16:40:21.874',604.202,0.0,136.9,2.9,3
2026-07-11,'16:40:22.491',676.893,0.0,138.4,2.9,3
2026-07-11,'16:40:22.511',707.379,0.0,139.6,2.9,3
2026-07-11,'16:40:22.612',1011.172,0.0,111.8,2.9,3
2026-07-11,'16:40:22.712',1370.674,0.0,88.9,2.9,3
2026-07-11,'16:40:22.812',1508.597,0.0,73.8,2.9,3
2026-07-11,'16:40:22.911',1431.336,0.0,65.1,2.9,3
2026-07-11,'16:40:23.011',1085.024,0.0,59.8,2.9,3
2026-07-11,'16:40:23.112',778.029,0.0,72.5,2.9,3
2026-07-11,'16:40:23.212',630.283,0.0,83.6,2.9,3
2026-07-11,'16:40:23.312',634.649,0.0,93.4,2.9,3
2026-07-11,'16:40:24.427',657.181,0.0,101.8,2.9,3
2026-07-11,'16:40:24.448',674.185,0.0,108.9,2.9,3
2026-07-11,'16:40:24.548',881.727,0.0,114.6,2.9,3
2026-07-11,'16:40:24.647',943.383,0.0,92.0,2.9,3
2026-07-11,'16:40:24.748',1007.717,0.0,77.4,2.9,3
2026-07-11,'16:40:24.848',852.166,0.0,68.2,2.9,3
2026-07-11,'16:40:24.947',729.688,0.0,79.9,2.9,3
2026-07-11,'16:40:25.048',634.340,0.0,90.0,2.9,3
2026-07-11,'16:40:25.147',628.898,0.0,98.5,2.9,3
2026-07-11,'16:40:25.248',700.840,0.0,105.9,2.9,3
2026-07-11,'16:40:25.971',711.951,0.0,112.0,2.9,3
2026-07-11,'16:40:25.992',714.547,0.0,117.1,2.9,3
2026-07-11,'16:40:26.091',968.866,0.0,121.2,2.9,3
2026-07-11,'16:40:26.193',1434.712,0.0,96.7,2.9,3
2026-07-11,'16:40:26.292',1582.281,0.0,80.3,2.9,3
2026-07-11,'16:40:26.392',1540.401,0.0,69.4,2.9,3
2026-07-11,'16:40:26.492',1159.960,0.0,62.4,2.9,3
2026-07-11,'16:40:26.591',855.893,0.0,59.4,2.9,3
2026-07-11,'16:40:26.691',710.463,0.0,72.5,2.9,3
2026-07-11,'16:40:26.792',656.177,0.0,83.5,2.9,3
2026-07-11,'16:40:28.005',608.869,0.0,92.8,2.9,3
2026-07-11,'16:40:28.026',608.388,0.0,100.7,2.9,3
2026-07-11,'16:40:28.125',1064.675,0.0,83.9,2.9,3
2026-07-11,'16:40:28.225',1232.022,0.0,71.3,2.9,3
2026-07-11,'16:40:28.325',1330.851,0.0,63.2,2.9,3
2026-07-11,'16:40:28.426',1107.501,0.0,58.1,2.9,3
2026-07-11,'16:40:28.526',899.074,0.0,55.0,2.9,3
2026-07-11,'16:40:28.626',712.610,0.0,53.5,2.9,3
2026-07-11,'16:40:28.725',547.510,0.0,67.4,2.9,3
2026-07-11,'16:40:28.826',501.946,0.0,79.4,2.9,3
2026-07-11,'16:40:29.441',512.007,0.0,89.5,2.9,3
2026-07-11,'16:40:29.461',523.550,0.0,98.0,2.9,3
2026-07-11,'16:40:29.562',1051.647,0.0,84.2,2.9,3
2026-07-11,'16:40:29.662',1234.778,0.0,71.1,2.9,3
2026-07-11,'16:40:29.761',1319.396,0.0,62.1,2.9,3
2026-07-11,'16:40:29.861',1105.573,0.0,57.5,2.9,3
2026-07-11,'16:40:29.961',824.595,0.0,57.5,2.9,3
2026-07-11,'16:40:30.062',703.903,0.0,70.8,2.9,3
2026-07-11,'16:40:30.162',690.662,0.0,82.0,2.9,3
2026-07-11,'16:40:30.262',660.593,0.0,91.9,2.9,3
2026-07-11,'16:40:31.480',593.263,0.0,100.4,2.9,3
2026-07-11,'16:40:31.501',593.729,0.0,107.7,2.9,3
2026-07-11,'16:40:31.601',604.422,0.0,113.9,2.9,3
2026-07-11,'16:40:31.700',638.213,0.0,119.2,2.9,3
2026-07-11,'16:40:31.801',686.053,0.0,123.5,2.9,3
2026-07-11,'16:40:31.901',652.385,0.0,127.1,2.9,3
2026-07-11,'16:40:32.000',644.459,0.0,130.5,2.9,3
2026-07-11,'16:40:32.100',648.573,0.0,133.2,2.9,3
2026-07-11,'16:40:32.200',727.191,0.0,135.2,2.9,3
2026-07-11,'16:40:32.301',807.749,0.0,136.6,2.9,3
2026-07-11,'16:40:32.916',783.034,0.0,107.7,2.9,3
2026-07-11,'16:40:32.938',781.009,0.0,89.0,2.9,3
2026-07-11,'16:40:33.037',912.784,0.0,96.3,2.9,3
2026-07-11,'16:40:33.136',1272.251,0.0,78.9,2.9,3
2026-07-11,'16:40:33.236',1384.045,0.0,67.5,2.9,3
2026-07-11,'16:40:33.336',1327.872,0.0,60.9,2.9,3
2026-07-11,'16:40:33.437',968.917,0.0,72.9,2.9,3
2026-07-11,'16:40:33.537',734.096,0.0,84.0,2.9,3
2026-07-11,'16:40:33.637',673.037,0.0,93.7,2.9,3
2026-07-11,'16:40:33.736',686.708,0.0,102.0,2.9,3
2026-07-11,'16:40:34.853',694.242,0.0,109.0,2.9,3
2026-07-11,'16:40:34.874',693.457,0.0,114.8,2.9,3
2026-07-11,'16:40:34.973',755.439,0.0,119.5,2.9,3
2026-07-11,'16:40:35.073',838.904,0.0,122.8,2.9,3
2026-07-11,'16:40:35.174',921.851,0.0,97.5,2.9,3
2026-07-11,'16:40:35.274',907.195,0.0,81.0,2.9,3
2026-07-11,'16:40:35.373',814.143,0.0,90.6,2.9,3
2026-07-11,'16:40:35.474',721.370,0.0,99.3,2.9,3
2026-07-11,'16:40:35.573',675.638,0.0,106.5,2.9,3
2026-07-11,'16:40:35.674',742.161,0.0,112.7,2.9,3
2026-07-11,'16:40:36.290',704.886,0.0,117.7,2.9,3
2026-07-11,'16:40:36.312',698.150,0.0,121.9,2.9,3
2026-07-11,'16:40:36.412',758.394,0.0,125.7,2.9,3
2026-07-11,'16:40:36.511',1263.633,0.0,101.4,2.9,3
2026-07-11,'16:40:36.612',1407.732,0.0,82.6,2.9,3
2026-07-11,'16:40:36.711',1449.680,0.0,70.7,2.9,3
2026-07-11,'16:40:36.812',1130.670,0.0,63.5,2.9,3
2026-07-11,'16:40:36.912',868.866,0.0,75.7,2.9,3
2026-07-11,'16:40:37.011',748.514,0.0,86.6,2.9,3
2026-07-11,'16:40:37.111',670.365,0.0,95.8,2.9,3
2026-07-11,'16:40:38.227',663.293,0.0,103.5,2.9,3
2026-07-11,'16:40:38.248',661.197,0.0,110.1,2.9,3
2026-07-11,'16:40:38.347',906.560,0.0,115.0,2.9,3
2026-07-11,'16:40:38.448',1013.500,0.0,91.8,2.9,3
2026-07-11,'16:40:38.548',1032.777,0.0,77.0,2.9,3
2026-07-11,'16:40:38.648',870.067,0.0,87.3,2.9,3
2026-07-11,'16:40:38.747',738.595,0.0,96.5,2.9,3
2026-07-11,'16:40:38.847',705.032,0.0,104.2,2.9,3
2026-07-11,'16:40:38.947',697.672,0.0,110.5,2.9,3
2026-07-11,'16:40:39.048',744.296,0.0,115.8,2.9,3
2026-07-11,'16:40:39.662',748.040,0.0,120.3,2.9,3
2026-07-11,'16:40:39.684',747.928,0.0,124.1,2.9,3
2026-07-11,'16:40:39.783',1000.279,0.0,121.2,2.9,3
2026-07-11,'16:40:39.882',1350.022,0.0,95.1,2.9,3
2026-07-11,'16:40:39.983',1460.094,0.0,78.1,2.9,3
2026-07-11,'16:40:40.082',1388.063,0.0,67.8,2.9,3
2026-07-11,'16:40:40.183',1054.923,0.0,61.8,2.9,3
2026-07-11,'16:40:40.283',809.820,0.0,74.5,2.9,3
2026-07-11,'16:40:40.383',704.262,0.0,85.6,2.9,3
2026-07-11,'16:40:40.482',695.341,0.0,95.0,2.9,3
2026-07-11,'16:40:41.600',693.570,0.0,103.0,2.9,3
2026-07-11,'16:40:41.621',690.864,0.0,109.7,2.9,3
2026-07-11,'16:40:41.721',690.979,0.0,115.4,2.9,3
2026-07-11,'16:40:41.820',690.917,0.0,120.3,2.9,3
2026-07-11,'16:40:41.921',667.306,0.0,124.5,2.9,3
2026-07-11,'16:40:42.021',662.470,0.0,127.9,2.9,3
2026-07-11,'16:40:42.120',658.460,0.0,131.2,2.9,3
2026-07-11,'16:40:42.220',690.331,0.0,133.7,2.9,3
2026-07-11,'16:40:42.320',723.220,0.0,135.5,2.9,3
2026-07-11,'16:40:42.421',748.819,0.0,136.9,2.9,3
2026-07-11,'16:40:43.144',738.692,0.0,138.4,2.9,3
2026-07-11,'16:40:43.166',758.717,0.0,139.6,2.9,3
2026-07-11,'16:40:43.265',1170.874,0.0,116.9,2.9,3
2026-07-11,'16:40:43.364',1513.567,0.0,93.6,2.9,3
2026-07-11,'16:40:43.464',1655.006,0.0,78.4,2.9,3
2026-07-11,'16:40:43.565',1517.017,0.0,67.9,2.9,3
2026-07-11,'16:40:43.665',1138.881,0.0,61.3,2.9,3
2026-07-11,'16:40:43.765',892.959,0.0,68.6,2.9,3
2026-07-11,'16:40:43.864',754.579,0.0,80.5,2.9,3
2026-07-11,'16:40:43.965',730.989,0.0,90.6,2.9,3
2026-07-11,'16:40:45.076',684.761,0.0,99.0,2.9,3
2026-07-11,'16:40:45.097',713.117,0.0,106.2,2.9,3
2026-07-11,'16:40:45.196',1255.262,0.0,89.6,2.9,3
2026-07-11,'16:40:45.297',1420.400,0.0,75.2,2.9,3
2026-07-11,'16:40:45.397',1484.627,0.0,65.9,2.9,3
2026-07-11,'16:40:45.496',1158.645,0.0,60.4,2.9,3
2026-07-11,'16:40:45.596',901.241,0.0,73.1,2.9,3
2026-07-11,'16:40:45.696',817.035,0.0,83.7,2.9,3
2026-07-11,'16:40:45.797',797.969,0.0,92.6,2.9,3
2026-07-11,'16:40:45.897',762.641,0.0,100.7,2.9,3
2026-07-11,'16:40:46.512',717.563,0.0,107.8,2.9,3
2026-07-11,'16:40:46.534',735.012,0.0,113.9,2.9,3
2026-07-11,'16:40:46.632',814.080,0.0,118.8,2.9,3
2026-07-11,'16:40:46.733',1187.522,0.0,94.7,2.9,3
2026-07-11,'16:40:46.832',1339.877,0.0,78.2,2.9,3
2026-07-11,'16:40:46.933',1315.258,0.0,68.0,2.9,3
2026-07-11,'16:40:47.033',1048.813,0.0,61.9,2.9,3
2026-07-11,'16:40:47.132',804.037,0.0,74.4,2.9,3
2026-07-11,'16:40:47.233',749.287,0.0,85.2,2.9,3
2026-07-11,'16:40:47.332',710.174,0.0,94.6,2.9,3
2026-07-11,'16:40:48.556',672.663,0.0,102.7,2.9,3
2026-07-11,'16:40:48.578',673.774,0.0,109.6,2.9,3
2026-07-11,'16:40:48.677',1226.971,0.0,91.5,2.9,3
2026-07-11,'16:40:48.776',1405.599,0.0,76.5,2.9,3
2026-07-11,'16:40:48.876',1459.455,0.0,66.8,2.9,3
2026-07-11,'16:40:48.977',1124.355,0.0,60.8,2.9,3
2026-07-11,'16:40:49.077',800.160,0.0,73.6,2.9,3
2026-07-11,'16:40:49.177',701.266,0.0,84.9,2.9,3
2026-07-11,'16:40:49.276',665.298,0.0,94.4,2.9,3
2026-07-11,'16:40:49.376',703.654,0.0,102.4,2.9,3
2026-07-11,'16:40:49.988',661.860,0.0,109.2,2.9,3
2026-07-11,'16:40:50.008',668.446,0.0,114.9,2.9,3
2026-07-11,'16:40:50.109',1364.419,0.0,92.5,2.9,3
2026-07-11,'16:40:50.210',1432.261,0.0,76.8,2.9,3
2026-07-11,'16:40:50.308',1479.278,0.0,68.2,2.9,3
2026-07-11,'16:40:50.408',1061.497,0.0,62.4,2.9,3
2026-07-11,'16:40:50.508',823.328,0.0,74.8,2.9,3
2026-07-11,'16:40:50.609',768.673,0.0,85.5,2.9,3
2026-07-11,'16:40:50.709',759.847,0.0,94.5,2.9,3
2026-07-11,'16:40:50.809',712.342,0.0,102.5,2.9,3
2026-07-11,'16:40:51.923',677.236,0.0,109.6,2.9,3
2026-07-11,'16:40:51.944',673.284,0.0,115.6,2.9,3
2026-07-11,'16:40:52.043',923.737,0.0,120.1,2.9,3
2026-07-11,'16:40:52.143',1031.364,0.0,95.3,2.9,3
2026-07-11,'16:40:52.244',1105.693,0.0,79.2,2.9,3
2026-07-11,'16:40:52.344',966.404,0.0,69.0,2.9,3
2026-07-11,'16:40:52.444',865.068,0.0,80.5,2.9,3
2026-07-11,'16:40:52.543',732.941,0.0,90.6,2.9,3
2026-07-11,'16:40:52.644',671.803,0.0,99.3,2.9,3
2026-07-11,'16:40:52.743',651.243,0.0,106.7,2.9,3
2026-07-11,'16:40:53.361',704.487,0.0,112.9,2.9,3
2026-07-11,'16:40:53.382',704.612,0.0,118.1,2.9,3
2026-07-11,'16:40:53.482',785.595,0.0,122.1,2.9,3
2026-07-11,'16:40:53.582',1292.995,0.0,96.2,2.9,3
2026-07-11,'16:40:53.681',1461.643,0.0,79.2,2.9,3
2026-07-11,'16:40:53.782',1473.653,0.0,68.6,2.9,3
2026-07-11,'16:40:53.881',1162.084,0.0,61.9,2.9,3
2026-07-11,'16:40:53.982',827.653,0.0,74.5,2.9,3
2026-07-11,'16:40:54.082',709.930,0.0,85.5,2.9,3
2026-07-11,'16:40:54.181',677.111,0.0,95.0,2.9,3
2026-07-11,'16:40:55.296',706.537,0.0,103.0,2.9,3
2026-07-11,'16:40:55.317',701.533,0.0,109.7,2.9,3
2026-07-11,'16:40:55.416',952.512,0.0,114.5,2.9,3
2026-07-11,'16:40:55.516',1102.518,0.0,91.5,2.9,3
2026-07-11,'16:40:55.616',1198.921,0.0,76.5,2.9,3
2026-07-11,'16:40:55.717',1120.666,0.0,66.9,2.9,3
2026-07-11,'16:40:55.817',972.129,0.0,60.9,2.9,3
2026-07-11,'16:40:55.916',836.647,0.0,73.6,2.9,3
2026-07-11,'16:40:56.016',723.324,0.0,84.8,2.9,3
2026-07-11,'16:40:56.116',769.995,0.0,93.9,2.9,3
2026-07-11,'16:40:56.734',817.728,0.0,101.1,2.9,3
2026-07-11,'16:40:56.755',816.716,0.0,107.1,2.9,3
2026-07-11,'16:40:56.855',898.322,0.0,87.3,2.9,3
2026-07-11,'16:40:56.955',1293.587,0.0,73.9,2.9,3
2026-07-11,'16:40:57.054',1422.849,0.0,64.7,2.9,3
2026-07-11,'16:40:57.154',1409.268,0.0,59.2,2.9,3
2026-07-11,'16:40:57.254',1096.118,0.0,55.9,2.9,3
2026-07-11,'16:40:57.355',790.914,0.0,69.4,2.9,3
2026-07-11,'16:40:57.455',699.997,0.0,81.0,2.9,3
2026-07-11,'16:40:57.555',704.095,0.0,91.2,2.9,3
2026-07-11,'16:40:58.783',680.010,0.0,99.9,2.9,3
2026-07-11,'16:40:58.804',706.433,0.0,107.2,2.9,3
2026-07-11,'16:40:58.904',1388.210,0.0,90.5,2.9,3
2026-07-11,'16:40:59.003',1573.417,0.0,75.9,2.9,3
2026-07-11,'16:40:59.104',1653.808,0.0,66.4,2.9,3
2026-07-11,'16:40:59.204',1239.292,0.0,60.3,2.9,3
2026-07-11,'16:40:59.303',917.260,0.0,57.5,2.9,3
2026-07-11,'16:40:59.403',752.636,0.0,70.9,2.9,3
2026-07-11,'16:40:59.503',760.475,0.0,82.1,2.9,3
2026-07-11,'16:40:59.604',819.737,0.0,91.4,2.9,3
2026-07-11,'16:41:00.209',793.699,0.0,97.1,2.9,3
2026-07-11,'16:41:00.231',803.208,0.0,102.1,2.9,3
2026-07-11,'16:41:00.329',1299.951,0.0,85.4,2.9,3
2026-07-11,'16:41:00.429',1498.321,0.0,73.0,2.9,3
2026-07-11,'16:41:00.529',1598.325,0.0,65.4,2.9,3
2026-07-11,'16:41:00.629',1388.264,0.0,59.5,2.9,3
2026-07-11,'16:41:00.729',1089.767,0.0,55.9,2.9,3
2026-07-11,'16:41:00.830',911.065,0.0,53.8,2.9,3
2026-07-11,'16:41:00.930',799.449,0.0,55.8,2.9,3
2026-07-11,'16:41:01.029',712.062,0.0,69.7,2.9,3
2026-07-11,'16:41:02.146',716.917,0.0,81.4,2.9,3
2026-07-11,'16:41:02.168',717.772,0.0,91.3,2.9,3
2026-07-11,'16:41:02.266',774.052,0.0,99.5,2.9,3
2026-07-11,'16:41:02.366',857.479,0.0,105.7,2.9,3
2026-07-11,'16:41:02.467',887.379,0.0,86.3,2.9,3
2026-07-11,'16:41:02.567',824.308,0.0,73.8,2.9,3
2026-07-11,'16:41:02.667',736.797,0.0,84.9,2.9,3
2026-07-11,'16:41:02.766',663.405,0.0,94.6,2.9,3
2026-07-11,'16:41:02.867',701.010,0.0,102.6,2.9,3
2026-07-11,'16:41:02.966',711.614,0.0,109.2,2.9,3
2026-07-11,'16:41:04.303',711.169,0.0,114.9,2.9,3
2026-07-11,'16:41:04.325',712.337,0.0,119.8,2.9,3
2026-07-11,'16:41:04.425',694.759,0.0,123.6,2.9,3
2026-07-11,'16:41:04.524',1268.161,0.0,100.3,2.9,3
2026-07-11,'16:41:04.625',1429.691,0.0,82.0,2.9,3
2026-07-11,'16:41:05.321',1491.351,0.0,70.3,2.9,3
2026-07-11,'16:41:05.342',1491.996,0.0,62.7,2.9,3
2026-07-11,'16:41:05.442',1202.986,0.0,58.2,2.9,3
2026-07-11,'16:41:05.542',951.653,0.0,55.7,2.9,3
2026-07-11,'16:41:05.641',806.374,0.0,69.2,2.9,3
2026-07-11,'16:41:06.242',690.871,0.0,80.9,2.9,3
2026-07-11,'16:41:06.263',691.203,0.0,90.9,2.9,3
2026-07-11,'16:41:06.363',587.746,0.0,99.5,2.9,3
2026-07-11,'16:41:06.463',598.550,0.0,107.0,2.9,3
2026-07-11,'16:41:06.563',677.517,0.0,113.3,2.9,3
2026-07-11,'16:41:06.663',730.364,0.0,118.2,2.9,3
2026-07-11,'16:41:06.762',748.834,0.0,122.6,2.9,3
2026-07-11,'16:41:06.863',713.237,0.0,126.3,2.9,3
2026-07-11,'16:41:06.962',692.251,0.0,129.5,2.9,3
2026-07-11,'16:41:07.063',681.241,0.0,132.2,2.9,3
2026-07-11,'16:41:08.281',640.336,0.0,134.4,2.9,3
2026-07-11,'16:41:08.302',649.000,0.0,136.3,2.9,3
2026-07-11,'16:41:08.402',662.199,0.0,138.1,2.9,3
2026-07-11,'16:41:08.501',1271.093,0.0,115.1,2.9,3
2026-07-11,'16:41:08.601',1451.462,0.0,91.4,2.9,3
2026-07-11,'16:41:08.702',1485.740,0.0,76.4,2.9,3
2026-07-11,'16:41:08.802',1119.658,0.0,66.9,2.9,3
2026-07-11,'16:41:08.902',837.181,0.0,78.7,2.9,3
2026-07-11,'16:41:09.001',752.690,0.0,89.0,2.9,3
2026-07-11,'16:41:09.101',727.969,0.0,97.9,2.9,3
2026-07-11,'16:41:09.717',765.001,0.0,105.1,2.9,3
2026-07-11,'16:41:09.738',786.666,0.0,111.3,2.9,3
2026-07-11,'16:41:09.837',1138.692,0.0,89.9,2.9,3
2026-07-11,'16:41:09.938',1241.810,0.0,75.4,2.9,3
2026-07-11,'16:41:10.038',1256.208,0.0,66.3,2.9,3
2026-07-11,'16:41:10.137',982.956,0.0,61.2,2.9,3
2026-07-11,'16:41:10.237',831.703,0.0,74.0,2.9,3
2026-07-11,'16:41:10.337',779.264,0.0,84.4,2.9,3
2026-07-11,'16:41:10.438',773.250,0.0,73.3,2.9,3
2026-07-11,'16:41:10.538',729.648,0.0,66.6,2.9,3
2026-07-11,'16:41:11.654',700.669,0.0,78.8,2.9,3
2026-07-11,'16:41:11.675',705.377,0.0,89.2,2.9,3
2026-07-11,'16:41:11.775',895.530,0.0,97.5,2.9,3
2026-07-11,'16:41:11.874',1262.953,0.0,80.4,2.9,3
2026-07-11,'16:41:11.974',1364.248,0.0,68.6,2.9,3
2026-07-11,'16:41:12.074',1283.943,0.0,61.7,2.9,3
2026-07-11,'16:41:12.174',980.103,0.0,73.8,2.9,3
2026-07-11,'16:41:12.275',795.023,0.0,84.6,2.9,3
2026-07-11,'16:41:12.375',717.157,0.0,93.7,2.9,3
2026-07-11,'16:41:12.474',643.809,0.0,101.9,2.9,3
2026-07-11,'16:41:13.090',598.393,0.0,108.8,2.9,3
2026-07-11,'16:41:13.111',601.078,0.0,114.7,2.9,3
2026-07-11,'16:41:13.211',1097.024,0.0,94.7,2.9,3
2026-07-11,'16:41:13.311',1253.157,0.0,78.5,2.9,3
2026-07-11,'16:41:13.411',1286.891,0.0,68.2,2.9,3
2026-07-11,'16:41:13.511',978.486,0.0,62.0,2.9,3
2026-07-11,'16:41:13.611',708.549,0.0,74.8,2.9,3
2026-07-11,'16:41:13.710',601.490,0.0,85.9,2.9,3
2026-07-11,'16:41:13.811',627.359,0.0,95.2,2.9,3
2026-07-11,'16:41:13.910',673.888,0.0,103.0,2.9,3
2026-07-11,'16:41:15.027',735.017,0.0,109.7,2.9,3
2026-07-11,'16:41:15.047',733.289,0.0,115.4,2.9,3
2026-07-11,'16:41:15.148',993.115,0.0,109.1,2.9,3
2026-07-11,'16:41:15.248',1301.794,0.0,87.2,2.9,3
2026-07-11,'16:41:15.348',1407.971,0.0,73.0,2.9,3
2026-07-11,'16:41:15.447',1328.189,0.0,64.6,2.9,3
2026-07-11,'16:41:15.547',1055.302,0.0,59.8,2.9,3
2026-07-11,'16:41:15.647',845.056,0.0,72.6,2.9,3
2026-07-11,'16:41:15.748',767.013,0.0,83.6,2.9,3
2026-07-11,'16:41:15.848',711.798,0.0,92.7,2.9,3
2026-07-11,'16:41:16.464',644.059,0.0,101.0,2.9,3
2026-07-11,'16:41:16.486',640.345,0.0,108.0,2.9,3
2026-07-11,'16:41:16.584',797.796,0.0,113.7,2.9,3
2026-07-11,'16:41:16.685',947.585,0.0,91.3,2.9,3
2026-07-11,'16:41:16.784',1010.176,0.0,76.6,2.9,3
2026-07-11,'16:41:16.885',931.740,0.0,67.8,2.9,3
2026-07-11,'16:41:16.985',765.941,0.0,64.8,2.9,3
2026-07-11,'16:41:17.085',672.687,0.0,77.2,2.9,3
2026-07-11,'16:41:17.184',633.498,0.0,88.0,2.9,3
2026-07-11,'16:41:17.285',680.626,0.0,97.1,2.9,3
2026-07-11,'16:41:18.503',713.266,0.0,104.5,2.9,3
2026-07-11,'16:41:18.524',713.138,0.0,110.9,2.9,3
2026-07-11,'16:41:18.624',760.937,0.0,116.4,2.9,3
2026-07-11,'16:41:18.724',1303.316,0.0,95.0,2.9,3
2026-07-11,'16:41:18.823',1487.123,0.0,78.3,2.9,3
2026-07-11,'16:41:18.924',1509.811,0.0,68.0,2.9,3
2026-07-11,'16:41:19.023',1141.663,0.0,61.4,2.9,3
2026-07-11,'16:41:19.124',782.567,0.0,73.9,2.9,3
2026-07-11,'16:41:19.224',659.415,0.0,84.8,2.9,3
2026-07-11,'16:41:19.324',648.721,0.0,94.5,2.9,3
2026-07-11,'16:41:20.052',672.551,0.0,102.7,2.9,3
